timestamp,window,sample,ir_raw,red_raw
2026-03-19T16:27:24.599,1,0,252133,176960
2026-03-19T16:27:24.639,1,1,252133,176960
2026-03-19T16:27:24.679,1,2,252223,176992
2026-03-19T16:27:24.718,1,3,252223,176992
2026-03-19T16:27:24.759,1,4,252223,176992
2026-03-19T16:27:24.798,1,5,252223,176992
2026-03-19T16:27:24.838,1,6,252027,176952
2026-03-19T16:27:24.878,1,7,252027,176952
2026-03-19T16:27:24.918,1,8,252027,176952
2026-03-19T16:27:24.958,1,9,252027,176952
2026-03-19T16:27:24.998,1,10,252009,176951
2026-03-19T16:27:25.038,1,11,252009,176951
2026-03-19T16:27:25.078,1,12,252009,176951
2026-03-19T16:27:25.118,1,13,252009,176951
2026-03-19T16:27:25.157,1,14,252002,176965
2026-03-19T16:27:25.198,1,15,252002,176965
2026-03-19T16:27:25.237,1,16,252002,176965
2026-03-19T16:27:25.277,1,17,252002,176965
2026-03-19T16:27:25.316,1,18,252064,176977
2026-03-19T16:27:25.356,1,19,252064,176977
2026-03-19T16:27:25.396,1,20,252064,176977
2026-03-19T16:27:25.436,1,21,252064,176977
2026-03-19T16:27:25.476,1,22,252042,176975
2026-03-19T16:27:25.516,1,23,252042,176975
2026-03-19T16:27:25.556,1,24,252042,176975
2026-03-19T16:27:25.596,1,25,252042,176975
2026-03-19T16:27:25.636,1,26,251811,176906
2026-03-19T16:27:25.676,1,27,251811,176906
2026-03-19T16:27:25.715,1,28,251811,176906
2026-03-19T16:27:25.755,1,29,251811,176906
2026-03-19T16:27:25.796,1,30,251792,176914
2026-03-19T16:27:25.835,1,31,251792,176914
2026-03-19T16:27:25.876,1,32,251792,176914
2026-03-19T16:27:25.915,1,33,251792,176914
2026-03-19T16:27:25.955,1,34,251827,176933
2026-03-19T16:27:25.994,1,35,251827,176933
2026-03-19T16:27:26.035,1,36,251827,176933
2026-03-19T16:27:26.074,1,37,251827,176933
2026-03-19T16:27:26.114,1,38,251945,176963
2026-03-19T16:27:26.154,1,39,251945,176963
2026-03-19T16:27:26.193,1,40,251945,176963
2026-03-19T16:27:26.234,1,41,251945,176963
2026-03-19T16:27:26.274,1,42,251755,176910
2026-03-19T16:27:26.314,1,43,251755,176910
2026-03-19T16:27:26.353,1,44,251755,176910
2026-03-19T16:27:26.393,1,45,251755,176910
2026-03-19T16:27:26.433,1,46,251662,176889
2026-03-19T16:27:26.473,1,47,251662,176889
2026-03-19T16:27:26.513,1,48,251662,176889
2026-03-19T16:27:26.553,1,49,251662,176889
2026-03-19T16:27:26.593,1,50,251655,176894
2026-03-19T16:27:26.632,1,51,251655,176894
2026-03-19T16:27:26.672,1,52,251655,176894
2026-03-19T16:27:26.712,1,53,251655,176894
2026-03-19T16:27:26.753,1,54,251741,176917
2026-03-19T16:27:26.792,1,55,251741,176917
2026-03-19T16:27:26.832,1,56,251741,176917
2026-03-19T16:27:26.872,1,57,251741,176917
2026-03-19T16:27:26.911,1,58,251832,176940
2026-03-19T16:27:26.952,1,59,251832,176940
2026-03-19T16:27:26.991,1,60,251832,176940
2026-03-19T16:27:27.031,1,61,251832,176940
2026-03-19T16:27:27.071,1,62,251647,176892
2026-03-19T16:27:27.110,1,63,251647,176892
2026-03-19T16:27:27.151,1,64,251647,176892
2026-03-19T16:27:27.191,1,65,251647,176892
2026-03-19T16:27:27.231,1,66,251597,176877
2026-03-19T16:27:27.271,1,67,251597,176877
2026-03-19T16:27:27.310,1,68,251597,176877
2026-03-19T16:27:27.350,1,69,251597,176877
2026-03-19T16:27:27.390,1,70,251634,176892
2026-03-19T16:27:27.430,1,71,251634,176892
2026-03-19T16:27:27.470,1,72,251634,176892
2026-03-19T16:27:27.509,1,73,251634,176892
2026-03-19T16:27:27.550,1,74,251724,176924
2026-03-19T16:27:27.589,1,75,251724,176924
2026-03-19T16:27:27.629,1,76,251724,176924
2026-03-19T16:27:27.669,1,77,251724,176924
2026-03-19T16:27:27.709,1,78,251834,176941
2026-03-19T16:27:27.749,1,79,251834,176941
2026-03-19T16:27:27.789,1,80,251834,176941
2026-03-19T16:27:27.829,1,81,251834,176941
2026-03-19T16:27:27.869,1,82,251684,176909
2026-03-19T16:27:27.909,1,83,251684,176909
2026-03-19T16:27:27.949,1,84,251684,176909
2026-03-19T16:27:27.989,1,85,251684,176909
2026-03-19T16:27:28.028,1,86,251747,176929
2026-03-19T16:27:28.068,1,87,251747,176929
2026-03-19T16:27:28.108,1,88,251747,176929
2026-03-19T16:27:28.148,1,89,251747,176929
2026-03-19T16:27:28.187,1,90,251914,176991
2026-03-19T16:27:28.227,1,91,251914,176991
2026-03-19T16:27:28.268,1,92,251914,176991
2026-03-19T16:27:28.307,1,93,251914,176991
2026-03-19T16:27:28.347,1,94,252108,177076
2026-03-19T16:27:28.387,1,95,252108,177076
2026-03-19T16:27:28.427,1,96,252108,177076
2026-03-19T16:27:28.467,1,97,252108,177076
2026-03-19T16:27:28.507,1,98,252274,177128
2026-03-19T16:27:28.547,1,99,252274,177128
2026-03-19T16:27:28.586,1,100,252274,177128
2026-03-19T16:27:28.626,1,101,252274,177128
2026-03-19T16:27:28.666,1,102,252177,177118
2026-03-19T16:27:28.706,1,103,252177,177118
2026-03-19T16:27:28.747,1,104,252177,177118
2026-03-19T16:27:28.785,1,105,252177,177118
2026-03-19T16:27:28.825,1,106,252253,177149
2026-03-19T16:27:28.865,1,107,252253,177149
2026-03-19T16:27:28.905,1,108,252253,177149
2026-03-19T16:27:28.945,1,109,252253,177149
2026-03-19T16:27:28.985,1,110,252353,177191
2026-03-19T16:27:29.025,1,111,252353,177191
2026-03-19T16:27:29.065,1,112,252353,177191
2026-03-19T16:27:29.104,1,113,252353,177191
2026-03-19T16:27:29.145,1,114,252508,177244
2026-03-19T16:27:29.185,1,115,252508,177244
2026-03-19T16:27:29.224,1,116,252508,177244
2026-03-19T16:27:29.265,1,117,252508,177244
2026-03-19T16:27:29.304,1,118,252439,177229
2026-03-19T16:27:29.344,1,119,252439,177229
2026-03-19T16:27:29.384,1,120,252439,177229
2026-03-19T16:27:29.423,1,121,252439,177229
2026-03-19T16:27:29.463,1,122,252431,177249
2026-03-19T16:27:29.505,1,123,252431,177249
2026-03-19T16:27:29.543,1,124,252431,177249
2026-03-19T16:27:29.583,1,125,252431,177249
2026-03-19T16:27:29.623,1,126,252474,177268
2026-03-19T16:27:29.663,1,127,252474,177268
2026-03-19T16:27:29.703,1,128,252474,177268
2026-03-19T16:27:29.743,1,129,252474,177268
2026-03-19T16:27:29.783,1,130,252555,177289
2026-03-19T16:27:29.822,1,131,252555,177289
2026-03-19T16:27:29.862,1,132,252555,177289
2026-03-19T16:27:29.902,1,133,252555,177289
2026-03-19T16:27:29.942,1,134,252659,177330
2026-03-19T16:27:29.981,1,135,252659,177330
2026-03-19T16:27:30.021,1,136,252659,177330
2026-03-19T16:27:30.061,1,137,252659,177330
2026-03-19T16:27:30.102,1,138,252400,177266
2026-03-19T16:27:30.141,1,139,252400,177266
2026-03-19T16:27:30.181,1,140,252400,177266
2026-03-19T16:27:30.221,1,141,252400,177266
2026-03-19T16:27:30.261,1,142,252414,177285
2026-03-19T16:27:30.306,1,143,252414,177285
2026-03-19T16:27:30.341,1,144,252414,177285
2026-03-19T16:27:30.380,1,145,252414,177285
2026-03-19T16:27:30.420,1,146,252456,177306
2026-03-19T16:27:30.460,1,147,252456,177306
2026-03-19T16:27:30.500,1,148,252456,177306
2026-03-19T16:27:30.540,1,149,252456,177306
2026-03-19T16:27:30.580,1,150,252579,177340
2026-03-19T16:27:30.620,1,151,252579,177340
2026-03-19T16:27:30.659,1,152,252579,177340
2026-03-19T16:27:30.699,1,153,252579,177340
2026-03-19T16:27:30.739,1,154,252379,177289
2026-03-19T16:27:30.779,1,155,252379,177289
2026-03-19T16:27:30.819,1,156,252379,177289
2026-03-19T16:27:30.859,1,157,252379,177289
2026-03-19T16:27:30.899,1,158,252287,177256
2026-03-19T16:27:30.939,1,159,252287,177256
2026-03-19T16:27:30.979,1,160,252287,177256
2026-03-19T16:27:31.018,1,161,252287,177256
2026-03-19T16:27:31.059,1,162,252257,177258
2026-03-19T16:27:31.099,1,163,252257,177258
2026-03-19T16:27:31.138,1,164,252257,177258
2026-03-19T16:27:31.178,1,165,252257,177258
2026-03-19T16:27:31.218,1,166,252352,177299
2026-03-19T16:27:31.258,1,167,252352,177299
2026-03-19T16:27:31.298,1,168,252352,177299
2026-03-19T16:27:31.337,1,169,252352,177299
2026-03-19T16:27:31.377,1,170,252478,177335
2026-03-19T16:27:31.417,1,171,252478,177335
2026-03-19T16:27:31.457,1,172,252478,177335
2026-03-19T16:27:31.497,1,173,252478,177335
2026-03-19T16:27:31.536,1,174,252207,177250
2026-03-19T16:27:31.576,1,175,252207,177250
2026-03-19T16:27:31.617,1,176,252207,177250
2026-03-19T16:27:31.656,1,177,252207,177250
2026-03-19T16:27:31.696,1,178,252159,177242
2026-03-19T16:27:31.736,1,179,252159,177242
2026-03-19T16:27:31.776,1,180,252159,177242
2026-03-19T16:27:31.816,1,181,252159,177242
2026-03-19T16:27:31.856,1,182,252186,177246
2026-03-19T16:27:31.896,1,183,252186,177246
2026-03-19T16:27:31.936,1,184,252186,177246
2026-03-19T16:27:31.976,1,185,252186,177246
2026-03-19T16:27:32.015,1,186,252273,177286
2026-03-19T16:27:32.055,1,187,252273,177286
2026-03-19T16:27:32.095,1,188,252273,177286
2026-03-19T16:27:32.135,1,189,252273,177286
2026-03-19T16:27:32.175,1,190,252322,177295
2026-03-19T16:27:32.214,1,191,252322,177295
2026-03-19T16:27:32.254,1,192,252322,177295
2026-03-19T16:27:32.295,1,193,252322,177295
2026-03-19T16:27:32.334,1,194,252055,177209
2026-03-19T16:27:32.374,1,195,252055,177209
2026-03-19T16:27:32.414,1,196,252055,177209
2026-03-19T16:27:32.454,1,197,252055,177209
2026-03-19T16:27:32.494,1,198,252071,177214
2026-03-19T16:27:32.534,1,199,252071,177214
2026-03-19T16:27:32.574,1,200,252071,177214
2026-03-19T16:27:32.613,1,201,252071,177214
2026-03-19T16:27:32.653,1,202,252116,177237
2026-03-19T16:27:32.693,1,203,252116,177237
2026-03-19T16:27:32.733,1,204,252116,177237
2026-03-19T16:27:32.773,1,205,252116,177237
2026-03-19T16:27:32.813,1,206,252227,177277
2026-03-19T16:27:32.853,1,207,252227,177277
2026-03-19T16:27:32.893,1,208,252227,177277
2026-03-19T16:27:32.933,1,209,252227,177277
2026-03-19T16:27:32.973,1,210,252168,177252
2026-03-19T16:27:33.012,1,211,252168,177252
2026-03-19T16:27:33.052,1,212,252168,177252
2026-03-19T16:27:33.092,1,213,252168,177252
2026-03-19T16:27:33.132,1,214,252010,177203
2026-03-19T16:27:33.172,1,215,252010,177203
2026-03-19T16:27:33.211,1,216,252010,177203
2026-03-19T16:27:33.252,1,217,252010,177203
2026-03-19T16:27:33.291,1,218,252024,177227
2026-03-19T16:27:33.331,1,219,252024,177227
2026-03-19T16:27:33.371,1,220,252024,177227
2026-03-19T16:27:33.411,1,221,252024,177227
2026-03-19T16:27:33.451,1,222,252116,177262
2026-03-19T16:27:33.491,1,223,252116,177262
2026-03-19T16:27:33.530,1,224,252116,177262
2026-03-19T16:27:33.570,1,225,252116,177262
2026-03-19T16:27:33.610,1,226,252223,177294
2026-03-19T16:27:33.650,1,227,252223,177294
2026-03-19T16:27:33.691,1,228,252223,177294
2026-03-19T16:27:33.730,1,229,252223,177294
2026-03-19T16:27:33.770,1,230,252082,177250
2026-03-19T16:27:33.810,1,231,252082,177250
2026-03-19T16:27:33.849,1,232,252082,177250
2026-03-19T16:27:33.889,1,233,252082,177250
2026-03-19T16:27:33.929,1,234,252016,177226
2026-03-19T16:27:33.969,1,235,252016,177226
2026-03-19T16:27:34.010,1,236,252016,177226
2026-03-19T16:27:34.049,1,237,252016,177226
2026-03-19T16:27:34.089,1,238,252030,177243
2026-03-19T16:27:34.128,1,239,252030,177243
2026-03-19T16:27:34.168,1,240,252030,177243
2026-03-19T16:27:34.208,1,241,252030,177243
2026-03-19T16:27:34.248,1,242,252124,177271
2026-03-19T16:27:34.288,1,243,252124,177271
2026-03-19T16:27:34.327,1,244,252124,177271
2026-03-19T16:27:34.367,1,245,252124,177271
2026-03-19T16:27:34.407,1,246,252206,177302
2026-03-19T16:27:34.447,1,247,252206,177302
2026-03-19T16:27:34.487,1,248,252206,177302
2026-03-19T16:27:34.527,1,249,252206,177302
2026-03-19T16:27:34.567,1,250,251961,177218
2026-03-19T16:27:34.607,1,251,251961,177218
2026-03-19T16:27:37.637,2,0,252143,177315
2026-03-19T16:27:37.677,2,1,252143,177315
2026-03-19T16:27:37.717,2,2,252143,177315
2026-03-19T16:27:37.757,2,3,252425,177405
2026-03-19T16:27:37.797,2,4,252425,177405
2026-03-19T16:27:37.837,2,5,252425,177405
2026-03-19T16:27:37.876,2,6,252425,177405
2026-03-19T16:27:37.916,2,7,252490,177433
2026-03-19T16:27:37.956,2,8,252490,177433
2026-03-19T16:27:37.996,2,9,252490,177433
2026-03-19T16:27:38.036,2,10,252490,177433
2026-03-19T16:27:38.075,2,11,252495,177452
2026-03-19T16:27:38.116,2,12,252495,177452
2026-03-19T16:27:38.156,2,13,252495,177452
2026-03-19T16:27:38.196,2,14,252495,177452
2026-03-19T16:27:38.236,2,15,252600,177481
2026-03-19T16:27:38.275,2,16,252600,177481
2026-03-19T16:27:38.315,2,17,252600,177481
2026-03-19T16:27:38.355,2,18,252600,177481
2026-03-19T16:27:38.395,2,19,252798,177549
2026-03-19T16:27:38.435,2,20,252798,177549
2026-03-19T16:27:38.475,2,21,252798,177549
2026-03-19T16:27:38.514,2,22,252798,177549
2026-03-19T16:27:38.554,2,23,252710,177513
2026-03-19T16:27:38.594,2,24,252710,177513
2026-03-19T16:27:38.634,2,25,252710,177513
2026-03-19T16:27:38.674,2,26,252710,177513
2026-03-19T16:27:38.714,2,27,252614,177489
2026-03-19T16:27:38.754,2,28,252614,177489
2026-03-19T16:27:38.793,2,29,252614,177489
2026-03-19T16:27:38.834,2,30,252614,177489
2026-03-19T16:27:38.873,2,31,252697,177515
2026-03-19T16:27:38.913,2,32,252697,177515
2026-03-19T16:27:38.953,2,33,252697,177515
2026-03-19T16:27:38.993,2,34,252697,177515
2026-03-19T16:27:39.033,2,35,252794,177557
2026-03-19T16:27:39.072,2,36,252794,177557
2026-03-19T16:27:39.112,2,37,252794,177557
2026-03-19T16:27:39.153,2,38,252794,177557
2026-03-19T16:27:39.192,2,39,252600,177487
2026-03-19T16:27:39.232,2,40,252600,177487
2026-03-19T16:27:39.272,2,41,252600,177487
2026-03-19T16:27:39.313,2,42,252600,177487
2026-03-19T16:27:39.352,2,43,252505,177470
2026-03-19T16:27:39.392,2,44,252505,177470
2026-03-19T16:27:39.432,2,45,252505,177470
2026-03-19T16:27:39.472,2,46,252505,177470
2026-03-19T16:27:39.511,2,47,252573,177486
2026-03-19T16:27:39.551,2,48,252573,177486
2026-03-19T16:27:39.591,2,49,252573,177486
2026-03-19T16:27:39.631,2,50,252573,177486
2026-03-19T16:27:39.671,2,51,252726,177552
2026-03-19T16:27:39.710,2,52,252726,177552
2026-03-19T16:27:39.750,2,53,252726,177552
2026-03-19T16:27:39.791,2,54,252726,177552
2026-03-19T16:27:39.830,2,55,252487,177473
2026-03-19T16:27:39.870,2,56,252487,177473
2026-03-19T16:27:39.910,2,57,252487,177473
2026-03-19T16:27:39.950,2,58,252487,177473
2026-03-19T16:27:39.990,2,59,252395,177462
2026-03-19T16:27:40.030,2,60,252395,177462
2026-03-19T16:27:40.070,2,61,252395,177462
2026-03-19T16:27:40.109,2,62,252395,177462
2026-03-19T16:27:40.149,2,63,252461,177477
2026-03-19T16:27:40.189,2,64,252461,177477
2026-03-19T16:27:40.229,2,65,252461,177477
2026-03-19T16:27:40.269,2,66,252461,177477
2026-03-19T16:27:40.309,2,67,252601,177526
2026-03-19T16:27:40.349,2,68,252601,177526
2026-03-19T16:27:40.389,2,69,252601,177526
2026-03-19T16:27:40.429,2,70,252601,177526
2026-03-19T16:27:40.469,2,71,252645,177537
2026-03-19T16:27:40.508,2,72,252645,177537
2026-03-19T16:27:40.548,2,73,252645,177537
2026-03-19T16:27:40.588,2,74,252645,177537
2026-03-19T16:27:40.627,2,75,252344,177447
2026-03-19T16:27:40.667,2,76,252344,177447
2026-03-19T16:27:40.708,2,77,252344,177447
2026-03-19T16:27:40.747,2,78,252344,177447
2026-03-19T16:27:40.787,2,79,252393,177467
2026-03-19T16:27:40.827,2,80,252393,177467
2026-03-19T16:27:40.867,2,81,252393,177467
2026-03-19T16:27:40.909,2,82,252393,177467
2026-03-19T16:27:40.946,2,83,252493,177504
2026-03-19T16:27:40.986,2,84,252493,177504
2026-03-19T16:27:41.027,2,85,252493,177504
2026-03-19T16:27:41.066,2,86,252493,177504
2026-03-19T16:27:41.106,2,87,252644,177551
2026-03-19T16:27:41.146,2,88,252644,177551
2026-03-19T16:27:41.185,2,89,252644,177551
2026-03-19T16:27:41.226,2,90,252644,177551
2026-03-19T16:27:41.266,2,91,252614,177532
2026-03-19T16:27:41.305,2,92,252614,177532
2026-03-19T16:27:41.345,2,93,252614,177532
2026-03-19T16:27:41.385,2,94,252614,177532
2026-03-19T16:27:41.425,2,95,252414,177466
2026-03-19T16:27:41.465,2,96,252414,177466
2026-03-19T16:27:41.505,2,97,252414,177466
2026-03-19T16:27:41.545,2,98,252414,177466
2026-03-19T16:27:41.584,2,99,252435,177486
2026-03-19T16:27:41.624,2,100,252435,177486
2026-03-19T16:27:41.664,2,101,252435,177486
2026-03-19T16:27:41.705,2,102,252435,177486
2026-03-19T16:27:41.744,2,103,252541,177506
2026-03-19T16:27:41.784,2,104,252541,177506
2026-03-19T16:27:41.824,2,105,252541,177506
2026-03-19T16:27:41.864,2,106,252541,177506
2026-03-19T16:27:41.903,2,107,252675,177546
2026-03-19T16:27:41.943,2,108,252675,177546
2026-03-19T16:27:41.985,2,109,252675,177546
2026-03-19T16:27:42.023,2,110,252675,177546
2026-03-19T16:27:42.063,2,111,252626,177530
2026-03-19T16:27:42.103,2,112,252626,177530
2026-03-19T16:27:42.143,2,113,252626,177530
2026-03-19T16:27:42.182,2,114,252626,177530
2026-03-19T16:27:42.222,2,115,252460,177483
2026-03-19T16:27:42.262,2,116,252460,177483
2026-03-19T16:27:42.302,2,117,252460,177483
2026-03-19T16:27:42.342,2,118,252460,177483
2026-03-19T16:27:42.382,2,119,252499,177501
2026-03-19T16:27:42.422,2,120,252499,177501
2026-03-19T16:27:42.461,2,121,252499,177501
2026-03-19T16:27:42.502,2,122,252499,177501
2026-03-19T16:27:42.542,2,123,252590,177551
2026-03-19T16:27:42.581,2,124,252590,177551
2026-03-19T16:27:42.621,2,125,252590,177551
2026-03-19T16:27:42.661,2,126,252590,177551
2026-03-19T16:27:42.701,2,127,252731,177586
2026-03-19T16:27:42.740,2,128,252731,177586
2026-03-19T16:27:42.781,2,129,252731,177586
2026-03-19T16:27:42.820,2,130,252731,177586
2026-03-19T16:27:42.860,2,131,252698,177580
2026-03-19T16:27:42.900,2,132,252698,177580
2026-03-19T16:27:42.940,2,133,252698,177580
2026-03-19T16:27:42.980,2,134,252698,177580
2026-03-19T16:27:43.020,2,135,252606,177562
2026-03-19T16:27:43.059,2,136,252606,177562
2026-03-19T16:27:43.099,2,137,252606,177562
2026-03-19T16:27:43.140,2,138,252606,177562
2026-03-19T16:27:43.180,2,139,252609,177570
2026-03-19T16:27:43.219,2,140,252609,177570
2026-03-19T16:27:43.259,2,141,252609,177570
2026-03-19T16:27:43.299,2,142,252609,177570
2026-03-19T16:27:43.339,2,143,252701,177591
2026-03-19T16:27:43.379,2,144,252701,177591
2026-03-19T16:27:43.419,2,145,252701,177591
2026-03-19T16:27:43.458,2,146,252701,177591
2026-03-19T16:27:43.498,2,147,252858,177669
2026-03-19T16:27:43.538,2,148,252858,177669
2026-03-19T16:27:43.578,2,149,252858,177669
2026-03-19T16:27:43.618,2,150,252858,177669
2026-03-19T16:27:43.658,2,151,252747,177636
2026-03-19T16:27:43.698,2,152,252747,177636
2026-03-19T16:27:43.738,2,153,252747,177636
2026-03-19T16:27:43.778,2,154,252747,177636
2026-03-19T16:27:43.818,2,155,252749,177644
2026-03-19T16:27:43.857,2,156,252749,177644
2026-03-19T16:27:43.897,2,157,252749,177644
2026-03-19T16:27:43.937,2,158,252749,177644
2026-03-19T16:27:43.977,2,159,252777,177651
2026-03-19T16:27:44.017,2,160,252777,177651
2026-03-19T16:27:44.056,2,161,252777,177651
2026-03-19T16:27:44.097,2,162,252777,177651
2026-03-19T16:27:44.136,2,163,252869,177678
2026-03-19T16:27:44.176,2,164,252869,177678
2026-03-19T16:27:44.217,2,165,252869,177678
2026-03-19T16:27:44.256,2,166,252869,177678
2026-03-19T16:27:44.296,2,167,252970,177711
2026-03-19T16:27:44.336,2,168,252970,177711
2026-03-19T16:27:44.375,2,169,252970,177711
2026-03-19T16:27:44.416,2,170,252970,177711
2026-03-19T16:27:44.455,2,171,252722,177657
2026-03-19T16:27:44.495,2,172,252722,177657
2026-03-19T16:27:44.535,2,173,252722,177657
2026-03-19T16:27:44.575,2,174,252722,177657
2026-03-19T16:27:44.615,2,175,252759,177668
2026-03-19T16:27:44.654,2,176,252759,177668
2026-03-19T16:27:44.694,2,177,252759,177668
2026-03-19T16:27:44.734,2,178,252759,177668
2026-03-19T16:27:44.774,2,179,252836,177702
2026-03-19T16:27:44.814,2,180,252836,177702
2026-03-19T16:27:44.854,2,181,252836,177702
2026-03-19T16:27:44.894,2,182,252836,177702
2026-03-19T16:27:44.933,2,183,252967,177755
2026-03-19T16:27:44.973,2,184,252967,177755
2026-03-19T16:27:45.014,2,185,252967,177755
2026-03-19T16:27:45.053,2,186,252967,177755
2026-03-19T16:27:45.093,2,187,253026,177767
2026-03-19T16:27:45.133,2,188,253026,177767
2026-03-19T16:27:45.173,2,189,253026,177767
2026-03-19T16:27:45.213,2,190,253026,177767
2026-03-19T16:27:45.253,2,191,252738,177682
2026-03-19T16:27:45.293,2,192,252738,177682
2026-03-19T16:27:45.332,2,193,252738,177682
2026-03-19T16:27:45.372,2,194,252738,177682
2026-03-19T16:27:45.413,2,195,252741,177684
2026-03-19T16:27:45.452,2,196,252741,177684
2026-03-19T16:27:45.492,2,197,252741,177684
2026-03-19T16:27:45.532,2,198,252741,177684
2026-03-19T16:27:45.572,2,199,252831,177712
2026-03-19T16:27:45.611,2,200,252831,177712
2026-03-19T16:27:45.651,2,201,252831,177712
2026-03-19T16:27:45.691,2,202,252831,177712
2026-03-19T16:27:45.731,2,203,252934,177747
2026-03-19T16:27:45.771,2,204,252934,177747
2026-03-19T16:27:45.811,2,205,252934,177747
2026-03-19T16:27:45.851,2,206,252934,177747
2026-03-19T16:27:45.890,2,207,252936,177758
2026-03-19T16:27:45.931,2,208,252936,177758
2026-03-19T16:27:45.970,2,209,252936,177758
2026-03-19T16:27:46.010,2,210,252936,177758
2026-03-19T16:27:46.050,2,211,252706,177672
2026-03-19T16:27:46.090,2,212,252706,177672
2026-03-19T16:27:46.130,2,213,252706,177672
2026-03-19T16:27:46.170,2,214,252706,177672
2026-03-19T16:27:46.209,2,215,252710,177674
2026-03-19T16:27:46.250,2,216,252710,177674
2026-03-19T16:27:46.289,2,217,252710,177674
2026-03-19T16:27:46.330,2,218,252710,177674
2026-03-19T16:27:46.370,2,219,252775,177700
2026-03-19T16:27:46.409,2,220,252775,177700
2026-03-19T16:27:46.449,2,221,252775,177700
2026-03-19T16:27:46.489,2,222,252775,177700
2026-03-19T16:27:46.529,2,223,252899,177744
2026-03-19T16:27:46.568,2,224,252899,177744
2026-03-19T16:27:46.609,2,225,252899,177744
2026-03-19T16:27:46.649,2,226,252899,177744
2026-03-19T16:27:46.688,2,227,252871,177736
2026-03-19T16:27:46.728,2,228,252871,177736
2026-03-19T16:27:46.768,2,229,252871,177736
2026-03-19T16:27:46.808,2,230,252871,177736
2026-03-19T16:27:46.848,2,231,252689,177669
2026-03-19T16:27:46.888,2,232,252689,177669
2026-03-19T16:27:46.927,2,233,252689,177669
2026-03-19T16:27:46.967,2,234,252689,177669
2026-03-19T16:27:47.007,2,235,252708,177672
2026-03-19T16:27:47.047,2,236,252708,177672
2026-03-19T16:27:47.087,2,237,252708,177672
2026-03-19T16:27:47.126,2,238,252708,177672
2026-03-19T16:27:47.167,2,239,252774,177710
2026-03-19T16:27:47.207,2,240,252774,177710
2026-03-19T16:27:47.246,2,241,252774,177710
2026-03-19T16:27:47.286,2,242,252774,177710
2026-03-19T16:27:47.326,2,243,252872,177723
2026-03-19T16:27:47.366,2,244,252872,177723
2026-03-19T16:27:47.406,2,245,252872,177723
2026-03-19T16:27:47.446,2,246,252872,177723
2026-03-19T16:27:47.486,2,247,252839,177703
2026-03-19T16:27:47.526,2,248,252839,177703
2026-03-19T16:27:47.565,2,249,252839,177703
2026-03-19T16:27:47.605,2,250,252839,177703
2026-03-19T16:27:47.645,2,251,252567,177602
2026-03-19T16:27:52.190,3,0,252952,177803
2026-03-19T16:27:52.231,3,1,252952,177803
2026-03-19T16:27:52.270,3,2,253011,177817
2026-03-19T16:27:52.310,3,3,253011,177817
2026-03-19T16:27:52.350,3,4,253011,177817
2026-03-19T16:27:52.390,3,5,253011,177817
2026-03-19T16:27:52.430,3,6,253161,177882
2026-03-19T16:27:52.469,3,7,253161,177882
2026-03-19T16:27:52.510,3,8,253161,177882
2026-03-19T16:27:52.550,3,9,253161,177882
2026-03-19T16:27:52.590,3,10,253319,177922
2026-03-19T16:27:52.629,3,11,253319,177922
2026-03-19T16:27:52.669,3,12,253319,177922
2026-03-19T16:27:52.709,3,13,253319,177922
2026-03-19T16:27:52.748,3,14,253000,177817
2026-03-19T16:27:52.788,3,15,253000,177817
2026-03-19T16:27:52.829,3,16,253000,177817
2026-03-19T16:27:52.868,3,17,253000,177817
2026-03-19T16:27:52.908,3,18,252915,177805
2026-03-19T16:27:52.948,3,19,252915,177805
2026-03-19T16:27:52.989,3,20,252915,177805
2026-03-19T16:27:53.028,3,21,252915,177805
2026-03-19T16:27:53.068,3,22,252940,177801
2026-03-19T16:27:53.107,3,23,252940,177801
2026-03-19T16:27:53.147,3,24,252940,177801
2026-03-19T16:27:53.187,3,25,252940,177801
2026-03-19T16:27:53.227,3,26,253075,177860
2026-03-19T16:27:53.267,3,27,253075,177860
2026-03-19T16:27:53.307,3,28,253075,177860
2026-03-19T16:27:53.347,3,29,253075,177860
2026-03-19T16:27:53.386,3,30,253193,177894
2026-03-19T16:27:53.427,3,31,253193,177894
2026-03-19T16:27:53.467,3,32,253193,177894
2026-03-19T16:27:53.507,3,33,253193,177894
2026-03-19T16:27:53.546,3,34,253277,177909
2026-03-19T16:27:53.586,3,35,253277,177909
2026-03-19T16:27:53.626,3,36,253277,177909
2026-03-19T16:27:53.666,3,37,253277,177909
2026-03-19T16:27:53.706,3,38,252857,177761
2026-03-19T16:27:53.746,3,39,252857,177761
2026-03-19T16:27:53.785,3,40,252857,177761
2026-03-19T16:27:53.825,3,41,252857,177761
2026-03-19T16:27:53.865,3,42,252747,177720
2026-03-19T16:27:53.905,3,43,252747,177720
2026-03-19T16:27:53.945,3,44,252747,177720
2026-03-19T16:27:53.985,3,45,252747,177720
2026-03-19T16:27:54.025,3,46,252750,177726
2026-03-19T16:27:54.065,3,47,252750,177726
2026-03-19T16:27:54.105,3,48,252750,177726
2026-03-19T16:27:54.145,3,49,252750,177726
2026-03-19T16:27:54.184,3,50,252828,177752
2026-03-19T16:27:54.224,3,51,252828,177752
2026-03-19T16:27:54.264,3,52,252828,177752
2026-03-19T16:27:54.304,3,53,252828,177752
2026-03-19T16:27:54.344,3,54,252939,177782
2026-03-19T16:27:54.384,3,55,252939,177782
2026-03-19T16:27:54.423,3,56,252939,177782
2026-03-19T16:27:54.463,3,57,252939,177782
2026-03-19T16:27:54.503,3,58,252802,177740
2026-03-19T16:27:54.543,3,59,252802,177740
2026-03-19T16:27:54.583,3,60,252802,177740
2026-03-19T16:27:54.622,3,61,252802,177740
2026-03-19T16:27:54.662,3,62,252567,177668
2026-03-19T16:27:54.702,3,63,252567,177668
2026-03-19T16:27:54.742,3,64,252567,177668
2026-03-19T16:27:54.782,3,65,252567,177668
2026-03-19T16:27:54.822,3,66,252571,177669
2026-03-19T16:27:54.862,3,67,252571,177669
2026-03-19T16:27:54.902,3,68,252571,177669
2026-03-19T16:27:54.942,3,69,252571,177669
2026-03-19T16:27:54.982,3,70,252633,177702
2026-03-19T16:27:55.021,3,71,252633,177702
2026-03-19T16:27:55.062,3,72,252633,177702
2026-03-19T16:27:55.102,3,73,252633,177702
2026-03-19T16:27:55.141,3,74,252758,177733
2026-03-19T16:27:55.181,3,75,252758,177733
2026-03-19T16:27:55.221,3,76,252758,177733
2026-03-19T16:27:55.261,3,77,252758,177733
2026-03-19T16:27:55.301,3,78,252860,177763
2026-03-19T16:27:55.341,3,79,252860,177763
2026-03-19T16:27:55.380,3,80,252860,177763
2026-03-19T16:27:55.420,3,81,252860,177763
2026-03-19T16:27:55.461,3,82,252689,177736
2026-03-19T16:27:55.500,3,83,252689,177736
2026-03-19T16:27:55.540,3,84,252689,177736
2026-03-19T16:27:55.580,3,85,252689,177736
2026-03-19T16:27:55.619,3,86,252716,177739
2026-03-19T16:27:55.659,3,87,252716,177739
2026-03-19T16:27:55.699,3,88,252716,177739
2026-03-19T16:27:55.739,3,89,252716,177739
2026-03-19T16:27:55.779,3,90,252817,177784
2026-03-19T16:27:55.819,3,91,252817,177784
2026-03-19T16:27:55.859,3,92,252817,177784
2026-03-19T16:27:55.898,3,93,252817,177784
2026-03-19T16:27:55.939,3,94,252937,177829
2026-03-19T16:27:55.981,3,95,252937,177829
2026-03-19T16:27:56.018,3,96,252937,177829
2026-03-19T16:27:56.058,3,97,252937,177829
2026-03-19T16:27:56.098,3,98,253045,177859
2026-03-19T16:27:56.138,3,99,253045,177859
2026-03-19T16:27:56.178,3,100,253045,177859
2026-03-19T16:27:56.217,3,101,253045,177859
2026-03-19T16:27:56.258,3,102,252886,177821
2026-03-19T16:27:56.297,3,103,252886,177821
2026-03-19T16:27:56.337,3,104,252886,177821
2026-03-19T16:27:56.377,3,105,252886,177821
2026-03-19T16:27:56.417,3,106,252969,177852
2026-03-19T16:27:56.457,3,107,252969,177852
2026-03-19T16:27:56.497,3,108,252969,177852
2026-03-19T16:27:56.536,3,109,252969,177852
2026-03-19T16:27:56.577,3,110,253029,177869
2026-03-19T16:27:56.617,3,111,253029,177869
2026-03-19T16:27:56.656,3,112,253029,177869
2026-03-19T16:27:56.696,3,113,253029,177869
2026-03-19T16:27:56.736,3,114,253210,177912
2026-03-19T16:27:56.776,3,115,253210,177912
2026-03-19T16:27:56.819,3,116,253210,177912
2026-03-19T16:27:56.855,3,117,253210,177912
2026-03-19T16:27:56.895,3,118,253129,177895
2026-03-19T16:27:56.935,3,119,253129,177895
2026-03-19T16:27:56.975,3,120,253129,177895
2026-03-19T16:27:57.015,3,121,253129,177895
2026-03-19T16:27:57.055,3,122,253070,177884
2026-03-19T16:27:57.096,3,123,253070,177884
2026-03-19T16:27:57.135,3,124,253070,177884
2026-03-19T16:27:57.174,3,125,253070,177884
2026-03-19T16:27:57.215,3,126,253101,177887
2026-03-19T16:27:57.254,3,127,253101,177887
2026-03-19T16:27:57.295,3,128,253101,177887
2026-03-19T16:27:57.334,3,129,253101,177887
2026-03-19T16:27:57.374,3,130,253202,177931
2026-03-19T16:27:57.414,3,131,253202,177931
2026-03-19T16:27:57.454,3,132,253202,177931
2026-03-19T16:27:57.493,3,133,253202,177931
2026-03-19T16:27:57.533,3,134,253359,177973
2026-03-19T16:27:57.573,3,135,253359,177973
2026-03-19T16:27:57.613,3,136,253359,177973
2026-03-19T16:27:57.653,3,137,253359,177973
2026-03-19T16:27:57.693,3,138,253112,177890
2026-03-19T16:27:57.733,3,139,253112,177890
2026-03-19T16:27:57.773,3,140,253112,177890
2026-03-19T16:27:57.813,3,141,253112,177890
2026-03-19T16:27:57.852,3,142,253119,177908
2026-03-19T16:27:57.892,3,143,253119,177908
2026-03-19T16:27:57.932,3,144,253119,177908
2026-03-19T16:27:57.972,3,145,253119,177908
2026-03-19T16:27:58.012,3,146,253152,177901
2026-03-19T16:27:58.052,3,147,253152,177901
2026-03-19T16:27:58.092,3,148,253152,177901
2026-03-19T16:27:58.132,3,149,253152,177901
2026-03-19T16:27:58.171,3,150,253248,177947
2026-03-19T16:27:58.211,3,151,253248,177947
2026-03-19T16:27:58.269,3,152,253248,177947
2026-03-19T16:27:58.291,3,153,253248,177947
2026-03-19T16:27:58.331,3,154,253303,177960
2026-03-19T16:27:58.371,3,155,253303,177960
2026-03-19T16:27:58.410,3,156,253303,177960
2026-03-19T16:27:58.450,3,157,253303,177960
2026-03-19T16:27:58.490,3,158,253009,177864
2026-03-19T16:27:58.531,3,159,253009,177864
2026-03-19T16:27:58.569,3,160,253009,177864
2026-03-19T16:27:58.610,3,161,253009,177864
2026-03-19T16:27:58.650,3,162,253027,177865
2026-03-19T16:27:58.689,3,163,253027,177865
2026-03-19T16:27:58.729,3,164,253027,177865
2026-03-19T16:27:58.769,3,165,253027,177865
2026-03-19T16:27:58.809,3,166,253112,177893
2026-03-19T16:27:58.849,3,167,253112,177893
2026-03-19T16:27:58.889,3,168,253112,177893
2026-03-19T16:27:58.929,3,169,253112,177893
2026-03-19T16:27:58.969,3,170,253217,177930
2026-03-19T16:27:59.008,3,171,253217,177930
2026-03-19T16:27:59.048,3,172,253217,177930
2026-03-19T16:27:59.088,3,173,253217,177930
2026-03-19T16:27:59.128,3,174,253161,177909
2026-03-19T16:27:59.168,3,175,253161,177909
2026-03-19T16:27:59.208,3,176,253161,177909
2026-03-19T16:27:59.248,3,177,253161,177909
2026-03-19T16:27:59.287,3,178,252918,177823
2026-03-19T16:27:59.327,3,179,252918,177823
2026-03-19T16:27:59.367,3,180,252918,177823
2026-03-19T16:27:59.407,3,181,252918,177823
2026-03-19T16:27:59.447,3,182,252905,177816
2026-03-19T16:27:59.487,3,183,252905,177816
2026-03-19T16:27:59.527,3,184,252905,177816
2026-03-19T16:27:59.567,3,185,252905,177816
2026-03-19T16:27:59.606,3,186,252978,177837
2026-03-19T16:27:59.646,3,187,252978,177837
2026-03-19T16:27:59.687,3,188,252978,177837
2026-03-19T16:27:59.727,3,189,252978,177837
2026-03-19T16:27:59.766,3,190,253066,177860
2026-03-19T16:27:59.806,3,191,253066,177860
2026-03-19T16:27:59.846,3,192,253066,177860
2026-03-19T16:27:59.886,3,193,253066,177860
2026-03-19T16:27:59.925,3,194,253055,177845
2026-03-19T16:27:59.965,3,195,253055,177845
2026-03-19T16:28:00.005,3,196,253055,177845
2026-03-19T16:28:00.045,3,197,253055,177845
2026-03-19T16:28:00.085,3,198,252782,177761
2026-03-19T16:28:00.125,3,199,252782,177761
2026-03-19T16:28:00.165,3,200,252782,177761
2026-03-19T16:28:00.205,3,201,252782,177761
2026-03-19T16:28:00.245,3,202,252758,177738
2026-03-19T16:28:00.284,3,203,252758,177738
2026-03-19T16:28:00.324,3,204,252758,177738
2026-03-19T16:28:00.365,3,205,252758,177738
2026-03-19T16:28:00.404,3,206,252830,177748
2026-03-19T16:28:00.444,3,207,252830,177748
2026-03-19T16:28:00.484,3,208,252830,177748
2026-03-19T16:28:00.523,3,209,252830,177748
2026-03-19T16:28:00.563,3,210,253009,177825
2026-03-19T16:28:00.604,3,211,253009,177825
2026-03-19T16:28:00.643,3,212,253009,177825
2026-03-19T16:28:00.683,3,213,253009,177825
2026-03-19T16:28:00.723,3,214,253170,177891
2026-03-19T16:28:00.763,3,215,253170,177891
2026-03-19T16:28:00.803,3,216,253170,177891
2026-03-19T16:28:00.842,3,217,253170,177891
2026-03-19T16:28:00.882,3,218,252970,177821
2026-03-19T16:28:00.922,3,219,252970,177821
2026-03-19T16:28:00.962,3,220,252970,177821
2026-03-19T16:28:01.002,3,221,252970,177821
2026-03-19T16:28:01.042,3,222,253009,177840
2026-03-19T16:28:01.082,3,223,253009,177840
2026-03-19T16:28:01.122,3,224,253009,177840
2026-03-19T16:28:01.162,3,225,253009,177840
2026-03-19T16:28:01.202,3,226,253094,177868
2026-03-19T16:28:01.241,3,227,253094,177868
2026-03-19T16:28:01.281,3,228,253094,177868
2026-03-19T16:28:01.321,3,229,253094,177868
2026-03-19T16:28:01.361,3,230,253265,177921
2026-03-19T16:28:01.400,3,231,253265,177921
2026-03-19T16:28:01.440,3,232,253265,177921
2026-03-19T16:28:01.480,3,233,253265,177921
2026-03-19T16:28:01.521,3,234,253283,177939
2026-03-19T16:28:01.560,3,235,253283,177939
2026-03-19T16:28:01.600,3,236,253283,177939
2026-03-19T16:28:01.640,3,237,253283,177939
2026-03-19T16:28:01.680,3,238,253172,177899
2026-03-19T16:28:01.720,3,239,253172,177899
2026-03-19T16:28:01.760,3,240,253172,177899
2026-03-19T16:28:01.800,3,241,253172,177899
2026-03-19T16:28:01.840,3,242,253227,177931
2026-03-19T16:28:01.879,3,243,253227,177931
2026-03-19T16:28:01.919,3,244,253227,177931
2026-03-19T16:28:01.959,3,245,253227,177931
2026-03-19T16:28:01.999,3,246,253297,177960
2026-03-19T16:28:02.039,3,247,253297,177960
2026-03-19T16:28:02.078,3,248,253297,177960
2026-03-19T16:28:02.119,3,249,253297,177960
2026-03-19T16:28:02.159,3,250,253444,178003
2026-03-19T16:28:02.199,3,251,253444,178003
2026-03-19T16:28:06.624,4,0,253175,177969
2026-03-19T16:28:06.664,4,1,253175,177969
2026-03-19T16:28:06.704,4,2,253175,177969
2026-03-19T16:28:06.744,4,3,253175,177969
2026-03-19T16:28:06.784,4,4,253242,177989
2026-03-19T16:28:06.823,4,5,253242,177989
2026-03-19T16:28:06.863,4,6,253242,177989
2026-03-19T16:28:06.903,4,7,253242,177989
2026-03-19T16:28:06.943,4,8,253392,178024
2026-03-19T16:28:06.983,4,9,253392,178024
2026-03-19T16:28:07.023,4,10,253392,178024
2026-03-19T16:28:07.063,4,11,253392,178024
2026-03-19T16:28:07.103,4,12,253523,178069
2026-03-19T16:28:07.143,4,13,253523,178069
2026-03-19T16:28:07.183,4,14,253523,178069
2026-03-19T16:28:07.222,4,15,253523,178069
2026-03-19T16:28:07.262,4,16,253167,177963
2026-03-19T16:28:07.302,4,17,253167,177963
2026-03-19T16:28:07.342,4,18,253167,177963
2026-03-19T16:28:07.382,4,19,253167,177963
2026-03-19T16:28:07.422,4,20,253157,177977
2026-03-19T16:28:07.462,4,21,253157,177977
2026-03-19T16:28:07.502,4,22,253157,177977
2026-03-19T16:28:07.542,4,23,253157,177977
2026-03-19T16:28:07.581,4,24,253181,177983
2026-03-19T16:28:07.621,4,25,253181,177983
2026-03-19T16:28:07.661,4,26,253181,177983
2026-03-19T16:28:07.701,4,27,253181,177983
2026-03-19T16:28:07.740,4,28,253263,178025
2026-03-19T16:28:07.781,4,29,253263,178025
2026-03-19T16:28:07.820,4,30,253263,178025
2026-03-19T16:28:07.860,4,31,253263,178025
2026-03-19T16:28:07.900,4,32,253411,178085
2026-03-19T16:28:07.940,4,33,253411,178085
2026-03-19T16:28:07.980,4,34,253411,178085
2026-03-19T16:28:08.020,4,35,253411,178085
2026-03-19T16:28:08.060,4,36,253148,177993
2026-03-19T16:28:08.099,4,37,253148,177993
2026-03-19T16:28:08.139,4,38,253148,177993
2026-03-19T16:28:08.179,4,39,253148,177993
2026-03-19T16:28:08.219,4,40,253008,177943
2026-03-19T16:28:08.259,4,41,253008,177943
2026-03-19T16:28:08.299,4,42,253008,177943
2026-03-19T16:28:08.338,4,43,253008,177943
2026-03-19T16:28:08.379,4,44,253020,177942
2026-03-19T16:28:08.419,4,45,253020,177942
2026-03-19T16:28:08.458,4,46,253020,177942
2026-03-19T16:28:08.498,4,47,253020,177942
2026-03-19T16:28:08.538,4,48,253126,177980
2026-03-19T16:28:08.578,4,49,253126,177980
2026-03-19T16:28:08.618,4,50,253126,177980
2026-03-19T16:28:08.658,4,51,253126,177980
2026-03-19T16:28:08.697,4,52,253302,178050
2026-03-19T16:28:08.738,4,53,253302,178050
2026-03-19T16:28:08.777,4,54,253302,178050
2026-03-19T16:28:08.817,4,55,253302,178050
2026-03-19T16:28:08.857,4,56,253348,178079
2026-03-19T16:28:08.897,4,57,253348,178079
2026-03-19T16:28:08.936,4,58,253348,178079
2026-03-19T16:28:08.976,4,59,253348,178079
2026-03-19T16:28:09.016,4,60,253209,178033
2026-03-19T16:28:09.056,4,61,253209,178033
2026-03-19T16:28:09.096,4,62,253209,178033
2026-03-19T16:28:09.136,4,63,253209,178033
2026-03-19T16:28:09.176,4,64,253297,178069
2026-03-19T16:28:09.218,4,65,253297,178069
2026-03-19T16:28:09.256,4,66,253297,178069
2026-03-19T16:28:09.295,4,67,253297,178069
2026-03-19T16:28:09.336,4,68,253416,178111
2026-03-19T16:28:09.376,4,69,253416,178111
2026-03-19T16:28:09.415,4,70,253416,178111
2026-03-19T16:28:09.456,4,71,253416,178111
2026-03-19T16:28:09.495,4,72,253593,178165
2026-03-19T16:28:09.535,4,73,253593,178165
2026-03-19T16:28:09.575,4,74,253593,178165
2026-03-19T16:28:09.614,4,75,253593,178165
2026-03-19T16:28:09.655,4,76,253649,178201
2026-03-19T16:28:09.694,4,77,253649,178201
2026-03-19T16:28:09.734,4,78,253649,178201
2026-03-19T16:28:09.774,4,79,253649,178201
2026-03-19T16:28:09.814,4,80,253528,178150
2026-03-19T16:28:09.854,4,81,253528,178150
2026-03-19T16:28:09.893,4,82,253528,178150
2026-03-19T16:28:09.934,4,83,253528,178150
2026-03-19T16:28:09.973,4,84,253588,178174
2026-03-19T16:28:10.014,4,85,253588,178174
2026-03-19T16:28:10.053,4,86,253588,178174
2026-03-19T16:28:10.093,4,87,253588,178174
2026-03-19T16:28:10.133,4,88,253668,178200
2026-03-19T16:28:10.173,4,89,253668,178200
2026-03-19T16:28:10.212,4,90,253668,178200
2026-03-19T16:28:10.252,4,91,253668,178200
2026-03-19T16:28:10.293,4,92,253786,178239
2026-03-19T16:28:10.333,4,93,253786,178239
2026-03-19T16:28:10.373,4,94,253786,178239
2026-03-19T16:28:10.413,4,95,253786,178239
2026-03-19T16:28:10.451,4,96,253573,178157
2026-03-19T16:28:10.491,4,97,253573,178157
2026-03-19T16:28:10.531,4,98,253573,178157
2026-03-19T16:28:10.571,4,99,253573,178157
2026-03-19T16:28:10.611,4,100,253529,178164
2026-03-19T16:28:10.651,4,101,253529,178164
2026-03-19T16:28:10.691,4,102,253529,178164
2026-03-19T16:28:10.731,4,103,253529,178164
2026-03-19T16:28:10.771,4,104,253536,178158
2026-03-19T16:28:10.810,4,105,253536,178158
2026-03-19T16:28:10.851,4,106,253536,178158
2026-03-19T16:28:10.891,4,107,253536,178158
2026-03-19T16:28:10.930,4,108,253644,178194
2026-03-19T16:28:10.970,4,109,253644,178194
2026-03-19T16:28:11.010,4,110,253644,178194
2026-03-19T16:28:11.050,4,111,253644,178194
2026-03-19T16:28:11.090,4,112,253660,178185
2026-03-19T16:28:11.129,4,113,253660,178185
2026-03-19T16:28:11.169,4,114,253660,178185
2026-03-19T16:28:11.209,4,115,253660,178185
2026-03-19T16:28:11.249,4,116,253216,178031
2026-03-19T16:28:11.289,4,117,253216,178031
2026-03-19T16:28:11.329,4,118,253216,178031
2026-03-19T16:28:11.369,4,119,253216,178031
2026-03-19T16:28:11.410,4,120,253148,178005
2026-03-19T16:28:11.449,4,121,253148,178005
2026-03-19T16:28:11.489,4,122,253148,178005
2026-03-19T16:28:11.529,4,123,253148,178005
2026-03-19T16:28:11.568,4,124,253142,178039
2026-03-19T16:28:11.608,4,125,253142,178039
2026-03-19T16:28:11.649,4,126,253142,178039
2026-03-19T16:28:11.687,4,127,253142,178039
2026-03-19T16:28:11.727,4,128,253213,178093
2026-03-19T16:28:11.767,4,129,253213,178093
2026-03-19T16:28:11.807,4,130,253213,178093
2026-03-19T16:28:11.848,4,131,253213,178093
2026-03-19T16:28:11.887,4,132,252943,178014
2026-03-19T16:28:11.927,4,133,252943,178014
2026-03-19T16:28:11.967,4,134,252943,178014
2026-03-19T16:28:12.007,4,135,252943,178014
2026-03-19T16:28:12.047,4,136,252767,177950
2026-03-19T16:28:12.087,4,137,252767,177950
2026-03-19T16:28:12.127,4,138,252767,177950
2026-03-19T16:28:12.167,4,139,252767,177950
2026-03-19T16:28:12.207,4,140,252771,177949
2026-03-19T16:28:12.246,4,141,252771,177949
2026-03-19T16:28:12.286,4,142,252771,177949
2026-03-19T16:28:12.326,4,143,252771,177949
2026-03-19T16:28:12.366,4,144,252914,178004
2026-03-19T16:28:12.406,4,145,252914,178004
2026-03-19T16:28:12.445,4,146,252914,178004
2026-03-19T16:28:12.485,4,147,252914,178004
2026-03-19T16:28:12.525,4,148,253098,178070
2026-03-19T16:28:12.565,4,149,253098,178070
2026-03-19T16:28:12.605,4,150,253098,178070
2026-03-19T16:28:12.645,4,151,253098,178070
2026-03-19T16:28:12.685,4,152,252842,177999
2026-03-19T16:28:12.724,4,153,252842,177999
2026-03-19T16:28:12.765,4,154,252842,177999
2026-03-19T16:28:12.804,4,155,252842,177999
2026-03-19T16:28:12.844,4,156,252860,178010
2026-03-19T16:28:12.883,4,157,252860,178010
2026-03-19T16:28:12.924,4,158,252860,178010
2026-03-19T16:28:12.964,4,159,252860,178010
2026-03-19T16:28:13.004,4,160,252989,178057
2026-03-19T16:28:13.044,4,161,252989,178057
2026-03-19T16:28:13.084,4,162,252989,178057
2026-03-19T16:28:13.123,4,163,252989,178057
2026-03-19T16:28:13.163,4,164,253203,178129
2026-03-19T16:28:13.203,4,165,253203,178129
2026-03-19T16:28:13.243,4,166,253203,178129
2026-03-19T16:28:13.283,4,167,253203,178129
2026-03-19T16:28:13.323,4,168,253194,178133
2026-03-19T16:28:13.362,4,169,253194,178133
2026-03-19T16:28:13.403,4,170,253194,178133
2026-03-19T16:28:13.442,4,171,253194,178133
2026-03-19T16:28:13.482,4,172,253143,178122
2026-03-19T16:28:13.522,4,173,253143,178122
2026-03-19T16:28:13.562,4,174,253143,178122
2026-03-19T16:28:13.601,4,175,253143,178122
2026-03-19T16:28:13.642,4,176,253205,178149
2026-03-19T16:28:13.681,4,177,253205,178149
2026-03-19T16:28:13.721,4,178,253205,178149
2026-03-19T16:28:13.761,4,179,253205,178149
2026-03-19T16:28:13.801,4,180,253301,178188
2026-03-19T16:28:13.841,4,181,253301,178188
2026-03-19T16:28:13.881,4,182,253301,178188
2026-03-19T16:28:13.921,4,183,253301,178188
2026-03-19T16:28:13.961,4,184,253417,178226
2026-03-19T16:28:14.001,4,185,253417,178226
2026-03-19T16:28:14.040,4,186,253417,178226
2026-03-19T16:28:14.081,4,187,253417,178226
2026-03-19T16:28:14.120,4,188,253136,178130
2026-03-19T16:28:14.160,4,189,253136,178130
2026-03-19T16:28:14.200,4,190,253136,178130
2026-03-19T16:28:14.240,4,191,253136,178130
2026-03-19T16:28:14.279,4,192,253196,178146
2026-03-19T16:28:14.319,4,193,253196,178146
2026-03-19T16:28:14.359,4,194,253196,178146
2026-03-19T16:28:14.399,4,195,253196,178146
2026-03-19T16:28:14.439,4,196,253293,178196
2026-03-19T16:28:14.479,4,197,253293,178196
2026-03-19T16:28:14.519,4,198,253293,178196
2026-03-19T16:28:14.559,4,199,253293,178196
2026-03-19T16:28:14.599,4,200,253445,178258
2026-03-19T16:28:14.638,4,201,253445,178258
2026-03-19T16:28:14.678,4,202,253445,178258
2026-03-19T16:28:14.718,4,203,253445,178258
2026-03-19T16:28:14.758,4,204,253244,178191
2026-03-19T16:28:14.798,4,205,253244,178191
2026-03-19T16:28:14.838,4,206,253244,178191
2026-03-19T16:28:14.877,4,207,253244,178191
2026-03-19T16:28:14.917,4,208,253126,178151
2026-03-19T16:28:14.957,4,209,253126,178151
2026-03-19T16:28:14.997,4,210,253126,178151
2026-03-19T16:28:15.037,4,211,253126,178151
2026-03-19T16:28:15.076,4,212,253152,178170
2026-03-19T16:28:15.116,4,213,253152,178170
2026-03-19T16:28:15.157,4,214,253152,178170
2026-03-19T16:28:15.197,4,215,253152,178170
2026-03-19T16:28:15.237,4,216,253261,178218
2026-03-19T16:28:15.276,4,217,253261,178218
2026-03-19T16:28:15.316,4,218,253261,178218
2026-03-19T16:28:15.356,4,219,253261,178218
2026-03-19T16:28:15.396,4,220,253408,178275
2026-03-19T16:28:15.436,4,221,253408,178275
2026-03-19T16:28:15.475,4,222,253408,178275
2026-03-19T16:28:15.516,4,223,253408,178275
2026-03-19T16:28:15.556,4,224,253101,178179
2026-03-19T16:28:15.596,4,225,253101,178179
2026-03-19T16:28:15.635,4,226,253101,178179
2026-03-19T16:28:15.675,4,227,253101,178179
2026-03-19T16:28:15.715,4,228,253006,178145
2026-03-19T16:28:15.754,4,229,253006,178145
2026-03-19T16:28:15.794,4,230,253006,178145
2026-03-19T16:28:15.834,4,231,253006,178145
2026-03-19T16:28:15.874,4,232,253041,178161
2026-03-19T16:28:15.914,4,233,253041,178161
2026-03-19T16:28:15.954,4,234,253041,178161
2026-03-19T16:28:15.994,4,235,253041,178161
2026-03-19T16:28:16.034,4,236,253169,178213
2026-03-19T16:28:16.074,4,237,253169,178213
2026-03-19T16:28:16.113,4,238,253169,178213
2026-03-19T16:28:16.154,4,239,253169,178213
2026-03-19T16:28:16.193,4,240,253312,178267
2026-03-19T16:28:16.233,4,241,253312,178267
2026-03-19T16:28:16.273,4,242,253312,178267
2026-03-19T16:28:16.313,4,243,253312,178267
2026-03-19T16:28:16.353,4,244,253246,178257
2026-03-19T16:28:16.393,4,245,253246,178257
2026-03-19T16:28:16.433,4,246,253246,178257
2026-03-19T16:28:16.473,4,247,253246,178257
2026-03-19T16:28:16.512,4,248,253084,178201
2026-03-19T16:28:16.552,4,249,253084,178201
2026-03-19T16:28:16.593,4,250,253084,178201
2026-03-19T16:28:16.633,4,251,253084,178201
2026-03-19T16:28:19.104,5,0,253390,178343
2026-03-19T16:28:19.144,5,1,253390,178343
2026-03-19T16:28:19.184,5,2,253390,178343
2026-03-19T16:28:19.223,5,3,253454,178368
2026-03-19T16:28:19.263,5,4,253454,178368
2026-03-19T16:28:19.303,5,5,253454,178368
2026-03-19T16:28:19.343,5,6,253454,178368
2026-03-19T16:28:19.383,5,7,253590,178412
2026-03-19T16:28:19.423,5,8,253590,178412
2026-03-19T16:28:19.463,5,9,253590,178412
2026-03-19T16:28:19.502,5,10,253590,178412
2026-03-19T16:28:19.542,5,11,253637,178416
2026-03-19T16:28:19.582,5,12,253637,178416
2026-03-19T16:28:19.623,5,13,253637,178416
2026-03-19T16:28:19.662,5,14,253637,178416
2026-03-19T16:28:19.702,5,15,253331,178324
2026-03-19T16:28:19.741,5,16,253331,178324
2026-03-19T16:28:19.781,5,17,253331,178324
2026-03-19T16:28:19.821,5,18,253331,178324
2026-03-19T16:28:19.861,5,19,253322,178317
2026-03-19T16:28:19.901,5,20,253322,178317
2026-03-19T16:28:19.942,5,21,253322,178317
2026-03-19T16:28:19.981,5,22,253322,178317
2026-03-19T16:28:20.021,5,23,253381,178338
2026-03-19T16:28:20.061,5,24,253381,178338
2026-03-19T16:28:20.101,5,25,253381,178338
2026-03-19T16:28:20.141,5,26,253381,178338
2026-03-19T16:28:20.180,5,27,253478,178371
2026-03-19T16:28:20.221,5,28,253478,178371
2026-03-19T16:28:20.260,5,29,253478,178371
2026-03-19T16:28:20.300,5,30,253478,178371
2026-03-19T16:28:20.340,5,31,253538,178399
2026-03-19T16:28:20.380,5,32,253538,178399
2026-03-19T16:28:20.419,5,33,253538,178399
2026-03-19T16:28:20.460,5,34,253538,178399
2026-03-19T16:28:20.499,5,35,253236,178296
2026-03-19T16:28:20.539,5,36,253236,178296
2026-03-19T16:28:20.579,5,37,253236,178296
2026-03-19T16:28:20.619,5,38,253236,178296
2026-03-19T16:28:20.659,5,39,253259,178310
2026-03-19T16:28:20.698,5,40,253259,178310
2026-03-19T16:28:20.738,5,41,253259,178310
2026-03-19T16:28:20.778,5,42,253259,178310
2026-03-19T16:28:20.819,5,43,253353,178327
2026-03-19T16:28:20.859,5,44,253353,178327
2026-03-19T16:28:20.898,5,45,253353,178327
2026-03-19T16:28:20.938,5,46,253353,178327
2026-03-19T16:28:20.978,5,47,253490,178383
2026-03-19T16:28:21.018,5,48,253490,178383
2026-03-19T16:28:21.057,5,49,253490,178383
2026-03-19T16:28:21.097,5,50,253490,178383
2026-03-19T16:28:21.137,5,51,253635,178429
2026-03-19T16:28:21.177,5,52,253635,178429
2026-03-19T16:28:21.217,5,53,253635,178429
2026-03-19T16:28:21.257,5,54,253635,178429
2026-03-19T16:28:21.297,5,55,253393,178344
2026-03-19T16:28:21.336,5,56,253393,178344
2026-03-19T16:28:21.377,5,57,253393,178344
2026-03-19T16:28:21.416,5,58,253393,178344
2026-03-19T16:28:21.456,5,59,253445,178385
2026-03-19T16:28:21.496,5,60,253445,178385
2026-03-19T16:28:21.536,5,61,253445,178385
2026-03-19T16:28:21.576,5,62,253445,178385
2026-03-19T16:28:21.616,5,63,253519,178392
2026-03-19T16:28:21.655,5,64,253519,178392
2026-03-19T16:28:21.695,5,65,253519,178392
2026-03-19T16:28:21.735,5,66,253519,178392
2026-03-19T16:28:21.775,5,67,253612,178416
2026-03-19T16:28:21.815,5,68,253612,178416
2026-03-19T16:28:21.855,5,69,253612,178416
2026-03-19T16:28:21.895,5,70,253612,178416
2026-03-19T16:28:21.935,5,71,253671,178443
2026-03-19T16:28:21.974,5,72,253671,178443
2026-03-19T16:28:22.015,5,73,253671,178443
2026-03-19T16:28:22.054,5,74,253671,178443
2026-03-19T16:28:22.094,5,75,253445,178361
2026-03-19T16:28:22.135,5,76,253445,178361
2026-03-19T16:28:22.174,5,77,253445,178361
2026-03-19T16:28:22.213,5,78,253445,178361
2026-03-19T16:28:22.254,5,79,253490,178395
2026-03-19T16:28:22.294,5,80,253490,178395
2026-03-19T16:28:22.334,5,81,253490,178395
2026-03-19T16:28:22.373,5,82,253490,178395
2026-03-19T16:28:22.413,5,83,253575,178416
2026-03-19T16:28:22.453,5,84,253575,178416
2026-03-19T16:28:22.493,5,85,253575,178416
2026-03-19T16:28:22.533,5,86,253575,178416
2026-03-19T16:28:22.573,5,87,253719,178471
2026-03-19T16:28:22.613,5,88,253719,178471
2026-03-19T16:28:22.653,5,89,253719,178471
2026-03-19T16:28:22.693,5,90,253719,178471
2026-03-19T16:28:22.732,5,91,253717,178469
2026-03-19T16:28:22.773,5,92,253717,178469
2026-03-19T16:28:22.812,5,93,253717,178469
2026-03-19T16:28:22.852,5,94,253717,178469
2026-03-19T16:28:22.892,5,95,253458,178378
2026-03-19T16:28:22.931,5,96,253458,178378
2026-03-19T16:28:22.971,5,97,253458,178378
2026-03-19T16:28:23.011,5,98,253458,178378
2026-03-19T16:28:23.051,5,99,253479,178389
2026-03-19T16:28:23.091,5,100,253479,178389
2026-03-19T16:28:23.131,5,101,253479,178389
2026-03-19T16:28:23.170,5,102,253479,178389
2026-03-19T16:28:23.210,5,103,253544,178426
2026-03-19T16:28:23.250,5,104,253544,178426
2026-03-19T16:28:23.290,5,105,253544,178426
2026-03-19T16:28:23.330,5,106,253544,178426
2026-03-19T16:28:23.370,5,107,253653,178462
2026-03-19T16:28:23.410,5,108,253653,178462
2026-03-19T16:28:23.450,5,109,253653,178462
2026-03-19T16:28:23.490,5,110,253653,178462
2026-03-19T16:28:23.530,5,111,253724,178484
2026-03-19T16:28:23.570,5,112,253724,178484
2026-03-19T16:28:23.609,5,113,253724,178484
2026-03-19T16:28:23.649,5,114,253724,178484
2026-03-19T16:28:23.689,5,115,253400,178369
2026-03-19T16:28:23.729,5,116,253400,178369
2026-03-19T16:28:23.769,5,117,253400,178369
2026-03-19T16:28:23.809,5,118,253400,178369
2026-03-19T16:28:23.849,5,119,253381,178362
2026-03-19T16:28:23.889,5,120,253381,178362
2026-03-19T16:28:23.928,5,121,253381,178362
2026-03-19T16:28:23.968,5,122,253381,178362
2026-03-19T16:28:24.008,5,123,253421,178390
2026-03-19T16:28:24.048,5,124,253421,178390
2026-03-19T16:28:24.088,5,125,253421,178390
2026-03-19T16:28:24.127,5,126,253421,178390
2026-03-19T16:28:24.167,5,127,253541,178428
2026-03-19T16:28:24.207,5,128,253541,178428
2026-03-19T16:28:24.248,5,129,253541,178428
2026-03-19T16:28:24.288,5,130,253541,178428
2026-03-19T16:28:24.327,5,131,253697,178475
2026-03-19T16:28:24.368,5,132,253697,178475
2026-03-19T16:28:24.407,5,133,253697,178475
2026-03-19T16:28:24.447,5,134,253697,178475
2026-03-19T16:28:24.487,5,135,253463,178404
2026-03-19T16:28:24.527,5,136,253463,178404
2026-03-19T16:28:24.566,5,137,253463,178404
2026-03-19T16:28:24.606,5,138,253463,178404
2026-03-19T16:28:24.646,5,139,253437,178409
2026-03-19T16:28:24.686,5,140,253437,178409
2026-03-19T16:28:24.726,5,141,253437,178409
2026-03-19T16:28:24.766,5,142,253437,178409
2026-03-19T16:28:24.805,5,143,253470,178417
2026-03-19T16:28:24.846,5,144,253470,178417
2026-03-19T16:28:24.885,5,145,253470,178417
2026-03-19T16:28:24.925,5,146,253470,178417
2026-03-19T16:28:24.965,5,147,253589,178444
2026-03-19T16:28:25.005,5,148,253589,178444
2026-03-19T16:28:25.045,5,149,253589,178444
2026-03-19T16:28:25.084,5,150,253589,178444
2026-03-19T16:28:25.124,5,151,253739,178494
2026-03-19T16:28:25.164,5,152,253739,178494
2026-03-19T16:28:25.204,5,153,253739,178494
2026-03-19T16:28:25.244,5,154,253739,178494
2026-03-19T16:28:25.284,5,155,253500,178417
2026-03-19T16:28:25.324,5,156,253500,178417
2026-03-19T16:28:25.364,5,157,253500,178417
2026-03-19T16:28:25.404,5,158,253500,178417
2026-03-19T16:28:25.444,5,159,253496,178423
2026-03-19T16:28:25.484,5,160,253496,178423
2026-03-19T16:28:25.524,5,161,253496,178423
2026-03-19T16:28:25.563,5,162,253496,178423
2026-03-19T16:28:25.603,5,163,253531,178425
2026-03-19T16:28:25.644,5,164,253531,178425
2026-03-19T16:28:25.683,5,165,253531,178425
2026-03-19T16:28:25.724,5,166,253531,178425
2026-03-19T16:28:25.763,5,167,253627,178459
2026-03-19T16:28:25.802,5,168,253627,178459
2026-03-19T16:28:25.842,5,169,253627,178459
2026-03-19T16:28:25.882,5,170,253627,178459
2026-03-19T16:28:25.922,5,171,253763,178507
2026-03-19T16:28:25.962,5,172,253763,178507
2026-03-19T16:28:26.002,5,173,253763,178507
2026-03-19T16:28:26.042,5,174,253763,178507
2026-03-19T16:28:26.082,5,175,253454,178397
2026-03-19T16:28:26.121,5,176,253454,178397
2026-03-19T16:28:26.161,5,177,253454,178397
2026-03-19T16:28:26.201,5,178,253454,178397
2026-03-19T16:28:26.241,5,179,253468,178405
2026-03-19T16:28:26.280,5,180,253468,178405
2026-03-19T16:28:26.320,5,181,253468,178405
2026-03-19T16:28:26.361,5,182,253468,178405
2026-03-19T16:28:26.400,5,183,253467,178375
2026-03-19T16:28:26.440,5,184,253467,178375
2026-03-19T16:28:26.481,5,185,253467,178375
2026-03-19T16:28:26.520,5,186,253467,178375
2026-03-19T16:28:26.560,5,187,253468,178332
2026-03-19T16:28:26.600,5,188,253468,178332
2026-03-19T16:28:26.640,5,189,253468,178332
2026-03-19T16:28:26.680,5,190,253468,178332
2026-03-19T16:28:26.719,5,191,253417,178318
2026-03-19T16:28:26.759,5,192,253417,178318
2026-03-19T16:28:26.799,5,193,253417,178318
2026-03-19T16:28:26.839,5,194,253417,178318
2026-03-19T16:28:26.879,5,195,253153,178245
2026-03-19T16:28:26.919,5,196,253153,178245
2026-03-19T16:28:26.958,5,197,253153,178245
2026-03-19T16:28:26.999,5,198,253153,178245
2026-03-19T16:28:27.038,5,199,253103,178231
2026-03-19T16:28:27.079,5,200,253103,178231
2026-03-19T16:28:27.118,5,201,253103,178231
2026-03-19T16:28:27.158,5,202,253103,178231
2026-03-19T16:28:27.199,5,203,253195,178276
2026-03-19T16:28:27.238,5,204,253195,178276
2026-03-19T16:28:27.277,5,205,253195,178276
2026-03-19T16:28:27.318,5,206,253195,178276
2026-03-19T16:28:27.357,5,207,253315,178342
2026-03-19T16:28:27.398,5,208,253315,178342
2026-03-19T16:28:27.437,5,209,253315,178342
2026-03-19T16:28:27.477,5,210,253315,178342
2026-03-19T16:28:27.517,5,211,253059,178259
2026-03-19T16:28:27.557,5,212,253059,178259
2026-03-19T16:28:27.597,5,213,253059,178259
2026-03-19T16:28:27.636,5,214,253059,178259
2026-03-19T16:28:27.677,5,215,253006,178248
2026-03-19T16:28:27.717,5,216,253006,178248
2026-03-19T16:28:27.756,5,217,253006,178248
2026-03-19T16:28:27.796,5,218,253006,178248
2026-03-19T16:28:27.836,5,219,253029,178274
2026-03-19T16:28:27.876,5,220,253029,178274
2026-03-19T16:28:27.916,5,221,253029,178274
2026-03-19T16:28:27.955,5,222,253029,178274
2026-03-19T16:28:27.995,5,223,253188,178335
2026-03-19T16:28:28.035,5,224,253188,178335
2026-03-19T16:28:28.075,5,225,253188,178335
2026-03-19T16:28:28.115,5,226,253188,178335
2026-03-19T16:28:28.154,5,227,253198,178345
2026-03-19T16:28:28.195,5,228,253198,178345
2026-03-19T16:28:28.234,5,229,253198,178345
2026-03-19T16:28:28.274,5,230,253198,178345
2026-03-19T16:28:28.314,5,231,252972,178289
2026-03-19T16:28:28.354,5,232,252972,178289
2026-03-19T16:28:28.394,5,233,252972,178289
2026-03-19T16:28:28.434,5,234,252972,178289
2026-03-19T16:28:28.473,5,235,252969,178275
2026-03-19T16:28:28.513,5,236,252969,178275
2026-03-19T16:28:28.553,5,237,252969,178275
2026-03-19T16:28:28.593,5,238,252969,178275
2026-03-19T16:28:28.633,5,239,253089,178338
2026-03-19T16:28:28.673,5,240,253089,178338
2026-03-19T16:28:28.713,5,241,253089,178338
2026-03-19T16:28:28.753,5,242,253089,178338
2026-03-19T16:28:28.793,5,243,253243,178389
2026-03-19T16:28:28.832,5,244,253243,178389
2026-03-19T16:28:28.873,5,245,253243,178389
2026-03-19T16:28:28.912,5,246,253243,178389
2026-03-19T16:28:28.952,5,247,253057,178351
2026-03-19T16:28:28.992,5,248,253057,178351
2026-03-19T16:28:29.032,5,249,253057,178351
2026-03-19T16:28:29.072,5,250,253057,178351
2026-03-19T16:28:32.261,6,0,252841,178253
2026-03-19T16:28:32.301,6,1,252580,178189
2026-03-19T16:28:32.341,6,2,252580,178189
2026-03-19T16:28:32.382,6,3,252580,178189
2026-03-19T16:28:32.421,6,4,252580,178189
2026-03-19T16:28:32.461,6,5,252606,178187
2026-03-19T16:28:32.501,6,6,252606,178187
2026-03-19T16:28:32.541,6,7,252606,178187
2026-03-19T16:28:32.581,6,8,252606,178187
2026-03-19T16:28:32.621,6,9,252660,178203
2026-03-19T16:28:32.660,6,10,252660,178203
2026-03-19T16:28:32.700,6,11,252660,178203
2026-03-19T16:28:32.740,6,12,252660,178203
2026-03-19T16:28:32.780,6,13,252791,178246
2026-03-19T16:28:32.820,6,14,252791,178246
2026-03-19T16:28:32.860,6,15,252791,178246
2026-03-19T16:28:32.900,6,16,252791,178246
2026-03-19T16:28:32.939,6,17,252628,178201
2026-03-19T16:28:32.979,6,18,252628,178201
2026-03-19T16:28:33.019,6,19,252628,178201
2026-03-19T16:28:33.059,6,20,252628,178201
2026-03-19T16:28:33.098,6,21,252648,178215
2026-03-19T16:28:33.139,6,22,252648,178215
2026-03-19T16:28:33.179,6,23,252648,178215
2026-03-19T16:28:33.219,6,24,252648,178215
2026-03-19T16:28:33.259,6,25,252683,178230
2026-03-19T16:28:33.299,6,26,252683,178230
2026-03-19T16:28:33.338,6,27,252683,178230
2026-03-19T16:28:33.378,6,28,252683,178230
2026-03-19T16:28:33.418,6,29,252840,178284
2026-03-19T16:28:33.458,6,30,252840,178284
2026-03-19T16:28:33.498,6,31,252840,178284
2026-03-19T16:28:33.537,6,32,252840,178284
2026-03-19T16:28:33.578,6,33,252989,178347
2026-03-19T16:28:33.618,6,34,252989,178347
2026-03-19T16:28:33.657,6,35,252989,178347
2026-03-19T16:28:33.697,6,36,252989,178347
2026-03-19T16:28:33.737,6,37,252823,178303
2026-03-19T16:28:33.777,6,38,252823,178303
2026-03-19T16:28:33.817,6,39,252823,178303
2026-03-19T16:28:33.857,6,40,252823,178303
2026-03-19T16:28:33.897,6,41,252855,178320
2026-03-19T16:28:33.936,6,42,252855,178320
2026-03-19T16:28:33.977,6,43,252855,178320
2026-03-19T16:28:34.016,6,44,252855,178320
2026-03-19T16:28:34.056,6,45,252957,178356
2026-03-19T16:28:34.096,6,46,252957,178356
2026-03-19T16:28:34.135,6,47,252957,178356
2026-03-19T16:28:34.176,6,48,252957,178356
2026-03-19T16:28:34.215,6,49,253167,178447
2026-03-19T16:28:34.255,6,50,253167,178447
2026-03-19T16:28:34.295,6,51,253167,178447
2026-03-19T16:28:34.336,6,52,253167,178447
2026-03-19T16:28:34.376,6,53,253381,178519
2026-03-19T16:28:34.415,6,54,253381,178519
2026-03-19T16:28:34.454,6,55,253381,178519
2026-03-19T16:28:34.494,6,56,253381,178519
2026-03-19T16:28:34.535,6,57,253207,178485
2026-03-19T16:28:34.574,6,58,253207,178485
2026-03-19T16:28:34.614,6,59,253207,178485
2026-03-19T16:28:34.654,6,60,253207,178485
2026-03-19T16:28:34.694,6,61,253296,178515
2026-03-19T16:28:34.733,6,62,253296,178515
2026-03-19T16:28:34.774,6,63,253296,178515
2026-03-19T16:28:34.813,6,64,253296,178515
2026-03-19T16:28:34.853,6,65,253392,178541
2026-03-19T16:28:34.894,6,66,253392,178541
2026-03-19T16:28:34.933,6,67,253392,178541
2026-03-19T16:28:34.973,6,68,253392,178541
2026-03-19T16:28:35.013,6,69,253554,178604
2026-03-19T16:28:35.053,6,70,253554,178604
2026-03-19T16:28:35.093,6,71,253554,178604
2026-03-19T16:28:35.133,6,72,253554,178604
2026-03-19T16:28:35.172,6,73,253513,178595
2026-03-19T16:28:35.212,6,74,253513,178595
2026-03-19T16:28:35.252,6,75,253513,178595
2026-03-19T16:28:35.291,6,76,253513,178595
2026-03-19T16:28:35.332,6,77,253381,178547
2026-03-19T16:28:35.372,6,78,253381,178547
2026-03-19T16:28:35.413,6,79,253381,178547
2026-03-19T16:28:35.451,6,80,253381,178547
2026-03-19T16:28:35.492,6,81,253411,178558
2026-03-19T16:28:35.531,6,82,253411,178558
2026-03-19T16:28:35.572,6,83,253411,178558
2026-03-19T16:28:35.611,6,84,253411,178558
2026-03-19T16:28:35.651,6,85,253530,178598
2026-03-19T16:28:35.691,6,86,253530,178598
2026-03-19T16:28:35.731,6,87,253530,178598
2026-03-19T16:28:35.770,6,88,253530,178598
2026-03-19T16:28:35.811,6,89,253655,178637
2026-03-19T16:28:35.850,6,90,253655,178637
2026-03-19T16:28:35.890,6,91,253655,178637
2026-03-19T16:28:35.930,6,92,253655,178637
2026-03-19T16:28:35.970,6,93,253361,178558
2026-03-19T16:28:36.010,6,94,253361,178558
2026-03-19T16:28:36.049,6,95,253361,178558
2026-03-19T16:28:36.089,6,96,253361,178558
2026-03-19T16:28:36.130,6,97,253331,178540
2026-03-19T16:28:36.169,6,98,253331,178540
2026-03-19T16:28:36.209,6,99,253331,178540
2026-03-19T16:28:36.249,6,100,253331,178540
2026-03-19T16:28:36.289,6,101,253345,178534
2026-03-19T16:28:36.337,6,102,253345,178534
2026-03-19T16:28:36.369,6,103,253345,178534
2026-03-19T16:28:36.408,6,104,253345,178534
2026-03-19T16:28:36.448,6,105,253461,178580
2026-03-19T16:28:36.488,6,106,253461,178580
2026-03-19T16:28:36.528,6,107,253461,178580
2026-03-19T16:28:36.568,6,108,253461,178580
2026-03-19T16:28:36.608,6,109,253453,178579
2026-03-19T16:28:36.648,6,110,253453,178579
2026-03-19T16:28:36.687,6,111,253453,178579
2026-03-19T16:28:36.728,6,112,253453,178579
2026-03-19T16:28:36.768,6,113,253194,178492
2026-03-19T16:28:36.808,6,114,253194,178492
2026-03-19T16:28:36.847,6,115,253194,178492
2026-03-19T16:28:36.887,6,116,253194,178492
2026-03-19T16:28:36.927,6,117,253213,178510
2026-03-19T16:28:36.966,6,118,253213,178510
2026-03-19T16:28:37.006,6,119,253213,178510
2026-03-19T16:28:37.046,6,120,253213,178510
2026-03-19T16:28:37.086,6,121,253283,178525
2026-03-19T16:28:37.127,6,122,253283,178525
2026-03-19T16:28:37.166,6,123,253283,178525
2026-03-19T16:28:37.206,6,124,253283,178525
2026-03-19T16:28:37.246,6,125,253451,178575
2026-03-19T16:28:37.286,6,126,253451,178575
2026-03-19T16:28:37.325,6,127,253451,178575
2026-03-19T16:28:37.365,6,128,253451,178575
2026-03-19T16:28:37.405,6,129,253184,178491
2026-03-19T16:28:37.444,6,130,253184,178491
2026-03-19T16:28:37.485,6,131,253184,178491
2026-03-19T16:28:37.524,6,132,253184,178491
2026-03-19T16:28:37.565,6,133,253009,178430
2026-03-19T16:28:37.604,6,134,253009,178430
2026-03-19T16:28:37.644,6,135,253009,178430
2026-03-19T16:28:37.684,6,136,253009,178430
2026-03-19T16:28:37.724,6,137,253039,178450
2026-03-19T16:28:37.764,6,138,253039,178450
2026-03-19T16:28:37.804,6,139,253039,178450
2026-03-19T16:28:37.843,6,140,253039,178450
2026-03-19T16:28:37.884,6,141,253175,178513
2026-03-19T16:28:37.923,6,142,253175,178513
2026-03-19T16:28:37.963,6,143,253175,178513
2026-03-19T16:28:38.004,6,144,253175,178513
2026-03-19T16:28:38.043,6,145,253312,178548
2026-03-19T16:28:38.083,6,146,253312,178548
2026-03-19T16:28:38.123,6,147,253312,178548
2026-03-19T16:28:38.163,6,148,253312,178548
2026-03-19T16:28:38.203,6,149,253359,178578
2026-03-19T16:28:38.243,6,150,253359,178578
2026-03-19T16:28:38.282,6,151,253359,178578
2026-03-19T16:28:38.322,6,152,253359,178578
2026-03-19T16:28:38.362,6,153,252965,178434
2026-03-19T16:28:38.402,6,154,252965,178434
2026-03-19T16:28:38.441,6,155,252965,178434
2026-03-19T16:28:38.481,6,156,252965,178434
2026-03-19T16:28:38.521,6,157,252893,178412
2026-03-19T16:28:38.561,6,158,252893,178412
2026-03-19T16:28:38.601,6,159,252893,178412
2026-03-19T16:28:38.641,6,160,252893,178412
2026-03-19T16:28:38.681,6,161,252952,178430
2026-03-19T16:28:38.721,6,162,252952,178430
2026-03-19T16:28:38.761,6,163,252952,178430
2026-03-19T16:28:38.800,6,164,252952,178430
2026-03-19T16:28:38.840,6,165,253090,178479
2026-03-19T16:28:38.880,6,166,253090,178479
2026-03-19T16:28:38.920,6,167,253090,178479
2026-03-19T16:28:38.960,6,168,253090,178479
2026-03-19T16:28:39.000,6,169,253235,178530
2026-03-19T16:28:39.040,6,170,253235,178530
2026-03-19T16:28:39.080,6,171,253235,178530
2026-03-19T16:28:39.120,6,172,253235,178530
2026-03-19T16:28:39.160,6,173,252941,178425
2026-03-19T16:28:39.199,6,174,252941,178425
2026-03-19T16:28:39.240,6,175,252941,178425
2026-03-19T16:28:39.279,6,176,252941,178425
2026-03-19T16:28:39.319,6,177,252844,178398
2026-03-19T16:28:39.359,6,178,252844,178398
2026-03-19T16:28:39.398,6,179,252844,178398
2026-03-19T16:28:39.438,6,180,252844,178398
2026-03-19T16:28:39.479,6,181,252883,178422
2026-03-19T16:28:39.519,6,182,252883,178422
2026-03-19T16:28:39.558,6,183,252883,178422
2026-03-19T16:28:39.598,6,184,252883,178422
2026-03-19T16:28:39.638,6,185,253048,178494
2026-03-19T16:28:39.678,6,186,253048,178494
2026-03-19T16:28:39.717,6,187,253048,178494
2026-03-19T16:28:39.757,6,188,253048,178494
2026-03-19T16:28:39.797,6,189,253210,178532
2026-03-19T16:28:39.837,6,190,253210,178532
2026-03-19T16:28:39.877,6,191,253210,178532
2026-03-19T16:28:39.917,6,192,253210,178532
2026-03-19T16:28:39.957,6,193,253217,178554
2026-03-19T16:28:39.997,6,194,253217,178554
2026-03-19T16:28:40.037,6,195,253217,178554
2026-03-19T16:28:40.077,6,196,253217,178554
2026-03-19T16:28:40.117,6,197,253054,178495
2026-03-19T16:28:40.157,6,198,253054,178495
2026-03-19T16:28:40.197,6,199,253054,178495
2026-03-19T16:28:40.236,6,200,253054,178495
2026-03-19T16:28:40.276,6,201,253123,178521
2026-03-19T16:28:40.316,6,202,253123,178521
2026-03-19T16:28:40.356,6,203,253123,178521
2026-03-19T16:28:40.396,6,204,253123,178521
2026-03-19T16:28:40.436,6,205,253280,178576
2026-03-19T16:28:40.475,6,206,253280,178576
2026-03-19T16:28:40.515,6,207,253280,178576
2026-03-19T16:28:40.555,6,208,253280,178576
2026-03-19T16:28:40.595,6,209,253514,178652
2026-03-19T16:28:40.635,6,210,253514,178652
2026-03-19T16:28:40.675,6,211,253514,178652
2026-03-19T16:28:40.714,6,212,253514,178652
2026-03-19T16:28:40.755,6,213,253509,178659
2026-03-19T16:28:40.794,6,214,253509,178659
2026-03-19T16:28:40.835,6,215,253509,178659
2026-03-19T16:28:40.874,6,216,253509,178659
2026-03-19T16:28:40.914,6,217,253438,178636
2026-03-19T16:28:40.954,6,218,253438,178636
2026-03-19T16:28:40.993,6,219,253438,178636
2026-03-19T16:28:41.034,6,220,253438,178636
2026-03-19T16:28:41.074,6,221,253518,178671
2026-03-19T16:28:41.113,6,222,253518,178671
2026-03-19T16:28:41.153,6,223,253518,178671
2026-03-19T16:28:41.193,6,224,253518,178671
2026-03-19T16:28:41.232,6,225,253646,178717
2026-03-19T16:28:41.272,6,226,253646,178717
2026-03-19T16:28:41.313,6,227,253646,178717
2026-03-19T16:28:41.353,6,228,253646,178717
2026-03-19T16:28:41.392,6,229,253818,178763
2026-03-19T16:28:41.432,6,230,253818,178763
2026-03-19T16:28:41.472,6,231,253818,178763
2026-03-19T16:28:41.513,6,232,253818,178763
2026-03-19T16:28:41.555,6,233,253604,178690
2026-03-19T16:28:41.591,6,234,253604,178690
2026-03-19T16:28:41.631,6,235,253604,178690
2026-03-19T16:28:41.671,6,236,253604,178690
2026-03-19T16:28:41.711,6,237,253604,178690
2026-03-19T16:28:41.751,6,238,253604,178690
2026-03-19T16:28:41.791,6,239,253604,178690
2026-03-19T16:28:41.831,6,240,253604,178690
2026-03-19T16:28:41.871,6,241,253662,178714
2026-03-19T16:28:41.910,6,242,253662,178714
2026-03-19T16:28:41.950,6,243,253662,178714
2026-03-19T16:28:41.991,6,244,253662,178714
2026-03-19T16:28:42.030,6,245,253817,178757
2026-03-19T16:28:42.070,6,246,253817,178757
2026-03-19T16:28:42.110,6,247,253817,178757
2026-03-19T16:28:42.150,6,248,253817,178757
2026-03-19T16:28:42.190,6,249,253696,178733
2026-03-19T16:28:42.230,6,250,253696,178733
2026-03-19T16:28:42.269,6,251,253696,178733
2026-03-19T16:28:44.382,7,0,253679,178722
2026-03-19T16:28:44.422,7,1,253808,178767
2026-03-19T16:28:44.462,7,2,253808,178767
2026-03-19T16:28:44.503,7,3,253808,178767
2026-03-19T16:28:44.542,7,4,253808,178767
2026-03-19T16:28:44.582,7,5,253443,178631
2026-03-19T16:28:44.622,7,6,253443,178631
2026-03-19T16:28:44.662,7,7,253443,178631
2026-03-19T16:28:44.702,7,8,253443,178631
2026-03-19T16:28:44.741,7,9,253377,178613
2026-03-19T16:28:44.781,7,10,253377,178613
2026-03-19T16:28:44.821,7,11,253377,178613
2026-03-19T16:28:44.861,7,12,253377,178613
2026-03-19T16:28:44.901,7,13,253394,178617
2026-03-19T16:28:44.940,7,14,253394,178617
2026-03-19T16:28:44.980,7,15,253394,178617
2026-03-19T16:28:45.021,7,16,253394,178617
2026-03-19T16:28:45.060,7,17,253521,178662
2026-03-19T16:28:45.100,7,18,253521,178662
2026-03-19T16:28:45.141,7,19,253521,178662
2026-03-19T16:28:45.181,7,20,253521,178662
2026-03-19T16:28:45.220,7,21,253646,178710
2026-03-19T16:28:45.260,7,22,253646,178710
2026-03-19T16:28:45.300,7,23,253646,178710
2026-03-19T16:28:45.339,7,24,253646,178710
2026-03-19T16:28:45.381,7,25,253667,178720
2026-03-19T16:28:45.419,7,26,253667,178720
2026-03-19T16:28:45.459,7,27,253667,178720
2026-03-19T16:28:45.499,7,28,253667,178720
2026-03-19T16:28:45.539,7,29,253279,178581
2026-03-19T16:28:45.578,7,30,253279,178581
2026-03-19T16:28:45.619,7,31,253279,178581
2026-03-19T16:28:45.658,7,32,253279,178581
2026-03-19T16:28:45.698,7,33,253238,178583
2026-03-19T16:28:45.738,7,34,253238,178583
2026-03-19T16:28:45.778,7,35,253238,178583
2026-03-19T16:28:45.818,7,36,253238,178583
2026-03-19T16:28:45.858,7,37,253297,178598
2026-03-19T16:28:45.897,7,38,253297,178598
2026-03-19T16:28:45.938,7,39,253297,178598
2026-03-19T16:28:45.977,7,40,253297,178598
2026-03-19T16:28:46.017,7,41,253421,178653
2026-03-19T16:28:46.057,7,42,253421,178653
2026-03-19T16:28:46.097,7,43,253421,178653
2026-03-19T16:28:46.137,7,44,253421,178653
2026-03-19T16:28:46.176,7,45,253556,178689
2026-03-19T16:28:46.216,7,46,253556,178689
2026-03-19T16:28:46.256,7,47,253556,178689
2026-03-19T16:28:46.296,7,48,253556,178689
2026-03-19T16:28:46.336,7,49,253321,178622
2026-03-19T16:28:46.376,7,50,253321,178622
2026-03-19T16:28:46.415,7,51,253321,178622
2026-03-19T16:28:46.455,7,52,253321,178622
2026-03-19T16:28:46.495,7,53,253208,178588
2026-03-19T16:28:46.535,7,54,253208,178588
2026-03-19T16:28:46.575,7,55,253208,178588
2026-03-19T16:28:46.615,7,56,253208,178588
2026-03-19T16:28:46.655,7,57,253204,178587
2026-03-19T16:28:46.695,7,58,253204,178587
2026-03-19T16:28:46.735,7,59,253204,178587
2026-03-19T16:28:46.774,7,60,253204,178587
2026-03-19T16:28:46.815,7,61,253330,178629
2026-03-19T16:28:46.854,7,62,253330,178629
2026-03-19T16:28:46.894,7,63,253330,178629
2026-03-19T16:28:46.934,7,64,253330,178629
2026-03-19T16:28:46.974,7,65,253493,178688
2026-03-19T16:28:47.014,7,66,253493,178688
2026-03-19T16:28:47.054,7,67,253493,178688
2026-03-19T16:28:47.094,7,68,253493,178688
2026-03-19T16:28:47.134,7,69,253583,178704
2026-03-19T16:28:47.174,7,70,253583,178704
2026-03-19T16:28:47.214,7,71,253583,178704
2026-03-19T16:28:47.253,7,72,253583,178704
2026-03-19T16:28:47.294,7,73,253417,178666
2026-03-19T16:28:47.333,7,74,253417,178666
2026-03-19T16:28:47.372,7,75,253417,178666
2026-03-19T16:28:47.413,7,76,253417,178666
2026-03-19T16:28:47.453,7,77,253507,178704
2026-03-19T16:28:47.493,7,78,253507,178704
2026-03-19T16:28:47.533,7,79,253507,178704
2026-03-19T16:28:47.572,7,80,253507,178704
2026-03-19T16:28:47.612,7,81,253647,178745
2026-03-19T16:28:47.655,7,82,253647,178745
2026-03-19T16:28:47.692,7,83,253647,178745
2026-03-19T16:28:47.732,7,84,253647,178745
2026-03-19T16:28:47.772,7,85,253829,178810
2026-03-19T16:28:47.812,7,86,253829,178810
2026-03-19T16:28:47.852,7,87,253829,178810
2026-03-19T16:28:47.891,7,88,253829,178810
2026-03-19T16:28:47.931,7,89,253886,178828
2026-03-19T16:28:47.971,7,90,253886,178828
2026-03-19T16:28:48.011,7,91,253886,178828
2026-03-19T16:28:48.051,7,92,253886,178828
2026-03-19T16:28:48.090,7,93,253724,178774
2026-03-19T16:28:48.130,7,94,253724,178774
2026-03-19T16:28:48.170,7,95,253724,178774
2026-03-19T16:28:48.211,7,96,253724,178774
2026-03-19T16:28:48.250,7,97,253795,178798
2026-03-19T16:28:48.290,7,98,253795,178798
2026-03-19T16:28:48.330,7,99,253795,178798
2026-03-19T16:28:48.369,7,100,253795,178798
2026-03-19T16:28:48.409,7,101,254058,178898
2026-03-19T16:28:48.449,7,102,254058,178898
2026-03-19T16:28:48.489,7,103,254058,178898
2026-03-19T16:28:48.529,7,104,254058,178898
2026-03-19T16:28:48.569,7,105,254333,179002
2026-03-19T16:28:48.609,7,106,254333,179002
2026-03-19T16:28:48.648,7,107,254333,179002
2026-03-19T16:28:48.688,7,108,254333,179002
2026-03-19T16:28:48.728,7,109,254305,179012
2026-03-19T16:28:48.768,7,110,254305,179012
2026-03-19T16:28:48.809,7,111,254305,179012
2026-03-19T16:28:48.849,7,112,254305,179012
2026-03-19T16:28:48.888,7,113,254303,179017
2026-03-19T16:28:48.928,7,114,254303,179017
2026-03-19T16:28:48.968,7,115,254303,179017
2026-03-19T16:28:49.007,7,116,254303,179017
2026-03-19T16:28:49.047,7,117,254358,179038
2026-03-19T16:28:49.087,7,118,254358,179038
2026-03-19T16:28:49.127,7,119,254358,179038
2026-03-19T16:28:49.167,7,120,254358,179038
2026-03-19T16:28:49.207,7,121,254533,179091
2026-03-19T16:28:49.247,7,122,254533,179091
2026-03-19T16:28:49.287,7,123,254533,179091
2026-03-19T16:28:49.327,7,124,254533,179091
2026-03-19T16:28:49.367,7,125,254542,179099
2026-03-19T16:28:49.406,7,126,254542,179099
2026-03-19T16:28:49.446,7,127,254542,179099
2026-03-19T16:28:49.486,7,128,254542,179099
2026-03-19T16:28:49.526,7,129,254300,179013
2026-03-19T16:28:49.566,7,130,254300,179013
2026-03-19T16:28:49.606,7,131,254300,179013
2026-03-19T16:28:49.645,7,132,254300,179013
2026-03-19T16:28:49.686,7,133,254310,179006
2026-03-19T16:28:49.725,7,134,254310,179006
2026-03-19T16:28:49.765,7,135,254310,179006
2026-03-19T16:28:49.804,7,136,254310,179006
2026-03-19T16:28:49.845,7,137,254382,179039
2026-03-19T16:28:49.884,7,138,254382,179039
2026-03-19T16:28:49.925,7,139,254382,179039
2026-03-19T16:28:49.964,7,140,254382,179039
2026-03-19T16:28:50.004,7,141,254431,179059
2026-03-19T16:28:50.045,7,142,254431,179059
2026-03-19T16:28:50.084,7,143,254431,179059
2026-03-19T16:28:50.124,7,144,254431,179059
2026-03-19T16:28:50.163,7,145,254027,178923
2026-03-19T16:28:50.203,7,146,254027,178923
2026-03-19T16:28:50.243,7,147,254027,178923
2026-03-19T16:28:50.283,7,148,254027,178923
2026-03-19T16:28:50.323,7,149,253933,178893
2026-03-19T16:28:50.363,7,150,253933,178893
2026-03-19T16:28:50.403,7,151,253933,178893
2026-03-19T16:28:50.443,7,152,253933,178893
2026-03-19T16:28:50.483,7,153,253920,178880
2026-03-19T16:28:50.523,7,154,253920,178880
2026-03-19T16:28:50.563,7,155,253920,178880
2026-03-19T16:28:50.602,7,156,253920,178880
2026-03-19T16:28:50.643,7,157,253961,178880
2026-03-19T16:28:50.682,7,158,253961,178880
2026-03-19T16:28:50.722,7,159,253961,178880
2026-03-19T16:28:50.762,7,160,253961,178880
2026-03-19T16:28:50.802,7,161,253657,178781
2026-03-19T16:28:50.841,7,162,253657,178781
2026-03-19T16:28:50.881,7,163,253657,178781
2026-03-19T16:28:50.921,7,164,253657,178781
2026-03-19T16:28:50.961,7,165,253457,178718
2026-03-19T16:28:51.001,7,166,253457,178718
2026-03-19T16:28:51.041,7,167,253457,178718
2026-03-19T16:28:51.082,7,168,253457,178718
2026-03-19T16:28:51.120,7,169,253467,178734
2026-03-19T16:28:51.161,7,170,253467,178734
2026-03-19T16:28:51.201,7,171,253467,178734
2026-03-19T16:28:51.240,7,172,253467,178734
2026-03-19T16:28:51.281,7,173,253576,178768
2026-03-19T16:28:51.320,7,174,253576,178768
2026-03-19T16:28:51.360,7,175,253576,178768
2026-03-19T16:28:51.400,7,176,253576,178768
2026-03-19T16:28:51.440,7,177,253661,178798
2026-03-19T16:28:51.480,7,178,253661,178798
2026-03-19T16:28:51.519,7,179,253661,178798
2026-03-19T16:28:51.560,7,180,253661,178798
2026-03-19T16:28:51.600,7,181,253271,178671
2026-03-19T16:28:51.640,7,182,253271,178671
2026-03-19T16:28:51.679,7,183,253271,178671
2026-03-19T16:28:51.719,7,184,253271,178671
2026-03-19T16:28:51.759,7,185,253174,178650
2026-03-19T16:28:51.798,7,186,253174,178650
2026-03-19T16:28:51.838,7,187,253174,178650
2026-03-19T16:28:51.878,7,188,253174,178650
2026-03-19T16:28:51.919,7,189,253191,178644
2026-03-19T16:28:51.958,7,190,253191,178644
2026-03-19T16:28:51.998,7,191,253191,178644
2026-03-19T16:28:52.037,7,192,253191,178644
2026-03-19T16:28:52.078,7,193,253316,178696
2026-03-19T16:28:52.118,7,194,253316,178696
2026-03-19T16:28:52.157,7,195,253316,178696
2026-03-19T16:28:52.197,7,196,253316,178696
2026-03-19T16:28:52.237,7,197,253450,178736
2026-03-19T16:28:52.277,7,198,253450,178736
2026-03-19T16:28:52.317,7,199,253450,178736
2026-03-19T16:28:52.357,7,200,253450,178736
2026-03-19T16:28:52.397,7,201,253028,178607
2026-03-19T16:28:52.437,7,202,253028,178607
2026-03-19T16:28:52.477,7,203,253028,178607
2026-03-19T16:28:52.517,7,204,253028,178607
2026-03-19T16:28:52.556,7,205,253006,178605
2026-03-19T16:28:52.596,7,206,253006,178605
2026-03-19T16:28:52.636,7,207,253006,178605
2026-03-19T16:28:52.676,7,208,253006,178605
2026-03-19T16:28:52.716,7,209,253089,178644
2026-03-19T16:28:52.756,7,210,253089,178644
2026-03-19T16:28:52.797,7,211,253089,178644
2026-03-19T16:28:52.836,7,212,253089,178644
2026-03-19T16:28:52.875,7,213,253294,178740
2026-03-19T16:28:52.915,7,214,253294,178740
2026-03-19T16:28:52.955,7,215,253294,178740
2026-03-19T16:28:52.995,7,216,253294,178740
2026-03-19T16:28:53.035,7,217,253338,178740
2026-03-19T16:28:53.074,7,218,253338,178740
2026-03-19T16:28:53.115,7,219,253338,178740
2026-03-19T16:28:53.154,7,220,253338,178740
2026-03-19T16:28:53.194,7,221,253084,178668
2026-03-19T16:28:53.234,7,222,253084,178668
2026-03-19T16:28:53.274,7,223,253084,178668
2026-03-19T16:28:53.314,7,224,253084,178668
2026-03-19T16:28:53.354,7,225,253144,178705
2026-03-19T16:28:53.393,7,226,253144,178705
2026-03-19T16:28:53.433,7,227,253144,178705
2026-03-19T16:28:53.473,7,228,253144,178705
2026-03-19T16:28:53.513,7,229,253331,178769
2026-03-19T16:28:53.553,7,230,253331,178769
2026-03-19T16:28:53.593,7,231,253331,178769
2026-03-19T16:28:53.633,7,232,253331,178769
2026-03-19T16:28:53.673,7,233,253541,178848
2026-03-19T16:28:53.712,7,234,253541,178848
2026-03-19T16:28:53.752,7,235,253541,178848
2026-03-19T16:28:53.793,7,236,253541,178848
2026-03-19T16:28:53.833,7,237,253410,178822
2026-03-19T16:28:53.872,7,238,253410,178822
2026-03-19T16:28:53.912,7,239,253410,178822
2026-03-19T16:28:53.952,7,240,253410,178822
2026-03-19T16:28:53.991,7,241,253479,178866
2026-03-19T16:28:54.032,7,242,253479,178866
2026-03-19T16:28:54.072,7,243,253479,178866
2026-03-19T16:28:54.111,7,244,253479,178866
2026-03-19T16:28:54.151,7,245,253619,178933
2026-03-19T16:28:54.191,7,246,253619,178933
2026-03-19T16:28:54.231,7,247,253619,178933
2026-03-19T16:28:54.271,7,248,253619,178933
2026-03-19T16:28:54.311,7,249,253820,179004
2026-03-19T16:28:54.351,7,250,253820,179004
2026-03-19T16:28:58.259,8,0,253635,179021
2026-03-19T16:28:58.298,8,1,253570,178999
2026-03-19T16:28:58.338,8,2,253570,178999
2026-03-19T16:28:58.377,8,3,253570,178999
2026-03-19T16:28:58.418,8,4,253570,178999
2026-03-19T16:28:58.458,8,5,253260,178897
2026-03-19T16:28:58.497,8,6,253260,178897
2026-03-19T16:28:58.537,8,7,253260,178897
2026-03-19T16:28:58.577,8,8,253260,178897
2026-03-19T16:28:58.617,8,9,253241,178894
2026-03-19T16:28:58.657,8,10,253241,178894
2026-03-19T16:28:58.697,8,11,253241,178894
2026-03-19T16:28:58.736,8,12,253241,178894
2026-03-19T16:28:58.776,8,13,253329,178925
2026-03-19T16:28:58.816,8,14,253329,178925
2026-03-19T16:28:58.856,8,15,253329,178925
2026-03-19T16:28:58.896,8,16,253329,178925
2026-03-19T16:28:58.936,8,17,253473,178967
2026-03-19T16:28:58.977,8,18,253473,178967
2026-03-19T16:28:59.016,8,19,253473,178967
2026-03-19T16:28:59.055,8,20,253473,178967
2026-03-19T16:28:59.095,8,21,253593,178993
2026-03-19T16:28:59.135,8,22,253593,178993
2026-03-19T16:28:59.175,8,23,253593,178993
2026-03-19T16:28:59.215,8,24,253593,178993
2026-03-19T16:28:59.255,8,25,253349,178929
2026-03-19T16:28:59.295,8,26,253349,178929
2026-03-19T16:28:59.335,8,27,253349,178929
2026-03-19T16:28:59.374,8,28,253349,178929
2026-03-19T16:28:59.414,8,29,253295,178913
2026-03-19T16:28:59.454,8,30,253295,178913
2026-03-19T16:28:59.494,8,31,253295,178913
2026-03-19T16:28:59.534,8,32,253295,178913
2026-03-19T16:28:59.574,8,33,253337,178919
2026-03-19T16:28:59.614,8,34,253337,178919
2026-03-19T16:28:59.654,8,35,253337,178919
2026-03-19T16:28:59.694,8,36,253337,178919
2026-03-19T16:28:59.733,8,37,253471,178954
2026-03-19T16:28:59.773,8,38,253471,178954
2026-03-19T16:28:59.813,8,39,253471,178954
2026-03-19T16:28:59.853,8,40,253471,178954
2026-03-19T16:28:59.893,8,41,253701,179036
2026-03-19T16:28:59.933,8,42,253701,179036
2026-03-19T16:28:59.973,8,43,253701,179036
2026-03-19T16:29:00.012,8,44,253701,179036
2026-03-19T16:29:00.053,8,45,253670,179035
2026-03-19T16:29:00.092,8,46,253670,179035
2026-03-19T16:29:00.132,8,47,253670,179035
2026-03-19T16:29:00.172,8,48,253670,179035
2026-03-19T16:29:00.212,8,49,253609,179015
2026-03-19T16:29:00.252,8,50,253609,179015
2026-03-19T16:29:00.292,8,51,253609,179015
2026-03-19T16:29:00.332,8,52,253609,179015
2026-03-19T16:29:00.372,8,53,253666,179031
2026-03-19T16:29:00.411,8,54,253666,179031
2026-03-19T16:29:00.452,8,55,253666,179031
2026-03-19T16:29:00.491,8,56,253666,179031
2026-03-19T16:29:00.531,8,57,253831,179085
2026-03-19T16:29:00.571,8,58,253831,179085
2026-03-19T16:29:00.611,8,59,253831,179085
2026-03-19T16:29:00.650,8,60,253831,179085
2026-03-19T16:29:00.691,8,61,253989,179131
2026-03-19T16:29:00.731,8,62,253989,179131
2026-03-19T16:29:00.771,8,63,253989,179131
2026-03-19T16:29:00.810,8,64,253989,179131
2026-03-19T16:29:00.851,8,65,253830,179083
2026-03-19T16:29:00.890,8,66,253830,179083
2026-03-19T16:29:00.931,8,67,253830,179083
2026-03-19T16:29:00.970,8,68,253830,179083
2026-03-19T16:29:01.010,8,69,253819,179075
2026-03-19T16:29:01.049,8,70,253819,179075
2026-03-19T16:29:01.090,8,71,253819,179075
2026-03-19T16:29:01.129,8,72,253819,179075
2026-03-19T16:29:01.169,8,73,253856,179084
2026-03-19T16:29:01.209,8,74,253856,179084
2026-03-19T16:29:01.249,8,75,253856,179084
2026-03-19T16:29:01.289,8,76,253856,179084
2026-03-19T16:29:01.328,8,77,254008,179134
2026-03-19T16:29:01.368,8,78,254008,179134
2026-03-19T16:29:01.408,8,79,254008,179134
2026-03-19T16:29:01.448,8,80,254008,179134
2026-03-19T16:29:01.494,8,81,254007,179135
2026-03-19T16:29:01.527,8,82,254007,179135
2026-03-19T16:29:01.576,8,83,254007,179135
2026-03-19T16:29:01.608,8,84,254007,179135
2026-03-19T16:29:01.647,8,85,253804,179071
2026-03-19T16:29:01.687,8,86,253804,179071
2026-03-19T16:29:01.727,8,87,253804,179071
2026-03-19T16:29:01.767,8,88,253804,179071
2026-03-19T16:29:01.807,8,89,253819,179088
2026-03-19T16:29:01.847,8,90,253819,179088
2026-03-19T16:29:01.886,8,91,253819,179088
2026-03-19T16:29:01.926,8,92,253819,179088
2026-03-19T16:29:01.966,8,93,253918,179112
2026-03-19T16:29:02.006,8,94,253918,179112
2026-03-19T16:29:02.046,8,95,253918,179112
2026-03-19T16:29:02.086,8,96,253918,179112
2026-03-19T16:29:02.126,8,97,254039,179154
2026-03-19T16:29:02.166,8,98,254039,179154
2026-03-19T16:29:02.205,8,99,254039,179154
2026-03-19T16:29:02.245,8,100,254039,179154
2026-03-19T16:29:02.286,8,101,253733,179052
2026-03-19T16:29:02.325,8,102,253733,179052
2026-03-19T16:29:02.365,8,103,253733,179052
2026-03-19T16:29:02.405,8,104,253733,179052
2026-03-19T16:29:02.445,8,105,253694,179053
2026-03-19T16:29:02.485,8,106,253694,179053
2026-03-19T16:29:02.525,8,107,253694,179053
2026-03-19T16:29:02.565,8,108,253694,179053
2026-03-19T16:29:02.605,8,109,253739,179062
2026-03-19T16:29:02.645,8,110,253739,179062
2026-03-19T16:29:02.684,8,111,253739,179062
2026-03-19T16:29:02.724,8,112,253739,179062
2026-03-19T16:29:02.764,8,113,253895,179117
2026-03-19T16:29:02.804,8,114,253895,179117
2026-03-19T16:29:02.844,8,115,253895,179117
2026-03-19T16:29:02.883,8,116,253895,179117
2026-03-19T16:29:02.924,8,117,253696,179051
2026-03-19T16:29:02.963,8,118,253696,179051
2026-03-19T16:29:03.004,8,119,253696,179051
2026-03-19T16:29:03.043,8,120,253696,179051
2026-03-19T16:29:03.083,8,121,253531,179004
2026-03-19T16:29:03.123,8,122,253531,179004
2026-03-19T16:29:03.163,8,123,253531,179004
2026-03-19T16:29:03.203,8,124,253531,179004
2026-03-19T16:29:03.243,8,125,253565,179015
2026-03-19T16:29:03.284,8,126,253565,179015
2026-03-19T16:29:03.323,8,127,253565,179015
2026-03-19T16:29:03.362,8,128,253565,179015
2026-03-19T16:29:03.403,8,129,253695,179063
2026-03-19T16:29:03.442,8,130,253695,179063
2026-03-19T16:29:03.482,8,131,253695,179063
2026-03-19T16:29:03.522,8,132,253695,179063
2026-03-19T16:29:03.562,8,133,253844,179109
2026-03-19T16:29:03.602,8,134,253844,179109
2026-03-19T16:29:03.641,8,135,253844,179109
2026-03-19T16:29:03.681,8,136,253844,179109
2026-03-19T16:29:03.721,8,137,253508,179002
2026-03-19T16:29:03.761,8,138,253508,179002
2026-03-19T16:29:03.801,8,139,253508,179002
2026-03-19T16:29:03.841,8,140,253508,179002
2026-03-19T16:29:03.881,8,141,253453,178982
2026-03-19T16:29:03.920,8,142,253453,178982
2026-03-19T16:29:03.960,8,143,253453,178982
2026-03-19T16:29:04.001,8,144,253453,178982
2026-03-19T16:29:04.040,8,145,253511,179004
2026-03-19T16:29:04.080,8,146,253511,179004
2026-03-19T16:29:04.121,8,147,253511,179004
2026-03-19T16:29:04.160,8,148,253511,179004
2026-03-19T16:29:04.200,8,149,253681,179055
2026-03-19T16:29:04.240,8,150,253681,179055
2026-03-19T16:29:04.279,8,151,253681,179055
2026-03-19T16:29:04.319,8,152,253681,179055
2026-03-19T16:29:04.359,8,153,253854,179118
2026-03-19T16:29:04.399,8,154,253854,179118
2026-03-19T16:29:04.439,8,155,253854,179118
2026-03-19T16:29:04.479,8,156,253854,179118
2026-03-19T16:29:04.519,8,157,253645,179067
2026-03-19T16:29:04.559,8,158,253645,179067
2026-03-19T16:29:04.598,8,159,253645,179067
2026-03-19T16:29:04.639,8,160,253645,179067
2026-03-19T16:29:04.678,8,161,253425,178996
2026-03-19T16:29:04.718,8,162,253425,178996
2026-03-19T16:29:04.758,8,163,253425,178996
2026-03-19T16:29:04.798,8,164,253425,178996
2026-03-19T16:29:04.838,8,165,253439,179003
2026-03-19T16:29:04.877,8,166,253439,179003
2026-03-19T16:29:04.917,8,167,253439,179003
2026-03-19T16:29:04.958,8,168,253439,179003
2026-03-19T16:29:04.997,8,169,253564,179054
2026-03-19T16:29:05.037,8,170,253564,179054
2026-03-19T16:29:05.077,8,171,253564,179054
2026-03-19T16:29:05.117,8,172,253564,179054
2026-03-19T16:29:05.156,8,173,253707,179095
2026-03-19T16:29:05.196,8,174,253707,179095
2026-03-19T16:29:05.237,8,175,253707,179095
2026-03-19T16:29:05.277,8,176,253707,179095
2026-03-19T16:29:05.316,8,177,253807,179118
2026-03-19T16:29:05.356,8,178,253807,179118
2026-03-19T16:29:05.396,8,179,253807,179118
2026-03-19T16:29:05.436,8,180,253807,179118
2026-03-19T16:29:05.475,8,181,253361,179007
2026-03-19T16:29:05.516,8,182,253361,179007
2026-03-19T16:29:05.560,8,183,253361,179007
2026-03-19T16:29:05.595,8,184,253361,179007
2026-03-19T16:29:05.635,8,185,253308,178986
2026-03-19T16:29:05.675,8,186,253308,178986
2026-03-19T16:29:05.715,8,187,253308,178986
2026-03-19T16:29:05.755,8,188,253308,178986
2026-03-19T16:29:05.795,8,189,253351,179007
2026-03-19T16:29:05.835,8,190,253351,179007
2026-03-19T16:29:05.875,8,191,253351,179007
2026-03-19T16:29:05.915,8,192,253351,179007
2026-03-19T16:29:05.955,8,193,253485,179033
2026-03-19T16:29:05.994,8,194,253485,179033
2026-03-19T16:29:06.034,8,195,253485,179033
2026-03-19T16:29:06.074,8,196,253485,179033
2026-03-19T16:29:06.114,8,197,253601,179084
2026-03-19T16:29:06.153,8,198,253601,179084
2026-03-19T16:29:06.193,8,199,253601,179084
2026-03-19T16:29:06.233,8,200,253601,179084
2026-03-19T16:29:06.273,8,201,253429,179037
2026-03-19T16:29:06.313,8,202,253429,179037
2026-03-19T16:29:06.353,8,203,253429,179037
2026-03-19T16:29:06.394,8,204,253429,179037
2026-03-19T16:29:06.433,8,205,253224,178969
2026-03-19T16:29:06.472,8,206,253224,178969
2026-03-19T16:29:06.512,8,207,253224,178969
2026-03-19T16:29:06.552,8,208,253224,178969
2026-03-19T16:29:06.592,8,209,253225,178974
2026-03-19T16:29:06.632,8,210,253225,178974
2026-03-19T16:29:06.672,8,211,253225,178974
2026-03-19T16:29:06.712,8,212,253225,178974
2026-03-19T16:29:06.752,8,213,253326,178994
2026-03-19T16:29:06.791,8,214,253326,178994
2026-03-19T16:29:06.832,8,215,253326,178994
2026-03-19T16:29:06.872,8,216,253326,178994
2026-03-19T16:29:06.911,8,217,253461,179036
2026-03-19T16:29:06.952,8,218,253461,179036
2026-03-19T16:29:06.991,8,219,253461,179036
2026-03-19T16:29:07.031,8,220,253461,179036
2026-03-19T16:29:07.071,8,221,253584,179074
2026-03-19T16:29:07.111,8,222,253584,179074
2026-03-19T16:29:07.151,8,223,253584,179074
2026-03-19T16:29:07.190,8,224,253584,179074
2026-03-19T16:29:07.230,8,225,253238,178973
2026-03-19T16:29:07.270,8,226,253238,178973
2026-03-19T16:29:07.310,8,227,253238,178973
2026-03-19T16:29:07.350,8,228,253238,178973
2026-03-19T16:29:07.390,8,229,253226,178963
2026-03-19T16:29:07.430,8,230,253226,178963
2026-03-19T16:29:07.469,8,231,253226,178963
2026-03-19T16:29:07.510,8,232,253226,178963
2026-03-19T16:29:07.550,8,233,253306,178989
2026-03-19T16:29:07.590,8,234,253306,178989
2026-03-19T16:29:07.629,8,235,253306,178989
2026-03-19T16:29:07.669,8,236,253306,178989
2026-03-19T16:29:07.709,8,237,253443,179038
2026-03-19T16:29:07.748,8,238,253443,179038
2026-03-19T16:29:07.788,8,239,253443,179038
2026-03-19T16:29:07.828,8,240,253443,179038
2026-03-19T16:29:07.868,8,241,253639,179103
2026-03-19T16:29:07.909,8,242,253639,179103
2026-03-19T16:29:07.948,8,243,253639,179103
2026-03-19T16:29:07.988,8,244,253639,179103
2026-03-19T16:29:08.028,8,245,253534,179062
2026-03-19T16:29:08.068,8,246,253534,179062
2026-03-19T16:29:08.107,8,247,253534,179062
2026-03-19T16:29:08.147,8,248,253534,179062
2026-03-19T16:29:08.187,8,249,253581,179090
2026-03-19T16:29:08.227,8,250,253581,179090
2026-03-19T16:29:08.267,8,251,253581,179090
2026-03-19T16:29:10.540,9,0,253840,179174
2026-03-19T16:29:10.579,9,1,253957,179208
2026-03-19T16:29:10.619,9,2,253957,179208
2026-03-19T16:29:10.659,9,3,253957,179208
2026-03-19T16:29:10.700,9,4,253957,179208
2026-03-19T16:29:10.739,9,5,254096,179243
2026-03-19T16:29:10.779,9,6,254096,179243
2026-03-19T16:29:10.819,9,7,254096,179243
2026-03-19T16:29:10.859,9,8,254096,179243
2026-03-19T16:29:10.899,9,9,253736,179137
2026-03-19T16:29:10.938,9,10,253736,179137
2026-03-19T16:29:10.978,9,11,253736,179137
2026-03-19T16:29:11.018,9,12,253736,179137
2026-03-19T16:29:11.058,9,13,253720,179128
2026-03-19T16:29:11.098,9,14,253720,179128
2026-03-19T16:29:11.137,9,15,253720,179128
2026-03-19T16:29:11.177,9,16,253720,179128
2026-03-19T16:29:11.217,9,17,253794,179164
2026-03-19T16:29:11.257,9,18,253794,179164
2026-03-19T16:29:11.297,9,19,253794,179164
2026-03-19T16:29:11.337,9,20,253794,179164
2026-03-19T16:29:11.377,9,21,253944,179206
2026-03-19T16:29:11.417,9,22,253944,179206
2026-03-19T16:29:11.456,9,23,253944,179206
2026-03-19T16:29:11.497,9,24,253944,179206
2026-03-19T16:29:11.537,9,25,253716,179133
2026-03-19T16:29:11.576,9,26,253716,179133
2026-03-19T16:29:11.617,9,27,253716,179133
2026-03-19T16:29:11.656,9,28,253716,179133
2026-03-19T16:29:11.696,9,29,253623,179110
2026-03-19T16:29:11.736,9,30,253623,179110
2026-03-19T16:29:11.776,9,31,253623,179110
2026-03-19T16:29:11.816,9,32,253623,179110
2026-03-19T16:29:11.855,9,33,253667,179136
2026-03-19T16:29:11.895,9,34,253667,179136
2026-03-19T16:29:11.935,9,35,253667,179136
2026-03-19T16:29:11.975,9,36,253667,179136
2026-03-19T16:29:12.015,9,37,253851,179203
2026-03-19T16:29:12.055,9,38,253851,179203
2026-03-19T16:29:12.095,9,39,253851,179203
2026-03-19T16:29:12.136,9,40,253851,179203
2026-03-19T16:29:12.175,9,41,253981,179229
2026-03-19T16:29:12.215,9,42,253981,179229
2026-03-19T16:29:12.254,9,43,253981,179229
2026-03-19T16:29:12.295,9,44,253981,179229
2026-03-19T16:29:12.334,9,45,253615,179112
2026-03-19T16:29:12.374,9,46,253615,179112
2026-03-19T16:29:12.414,9,47,253615,179112
2026-03-19T16:29:12.454,9,48,253615,179112
2026-03-19T16:29:12.494,9,49,253565,179105
2026-03-19T16:29:12.534,9,50,253565,179105
2026-03-19T16:29:12.573,9,51,253565,179105
2026-03-19T16:29:12.613,9,52,253565,179105
2026-03-19T16:29:12.653,9,53,253613,179113
2026-03-19T16:29:12.693,9,54,253613,179113
2026-03-19T16:29:12.733,9,55,253613,179113
2026-03-19T16:29:12.772,9,56,253613,179113
2026-03-19T16:29:12.812,9,57,253773,179182
2026-03-19T16:29:12.853,9,58,253773,179182
2026-03-19T16:29:12.892,9,59,253773,179182
2026-03-19T16:29:12.932,9,60,253773,179182
2026-03-19T16:29:12.972,9,61,253908,179233
2026-03-19T16:29:13.012,9,62,253908,179233
2026-03-19T16:29:13.052,9,63,253908,179233
2026-03-19T16:29:13.092,9,64,253908,179233
2026-03-19T16:29:13.131,9,65,253573,179124
2026-03-19T16:29:13.171,9,66,253573,179124
2026-03-19T16:29:13.211,9,67,253573,179124
2026-03-19T16:29:13.250,9,68,253573,179124
2026-03-19T16:29:13.290,9,69,253398,179086
2026-03-19T16:29:13.330,9,70,253398,179086
2026-03-19T16:29:13.370,9,71,253398,179086
2026-03-19T16:29:13.410,9,72,253398,179086
2026-03-19T16:29:13.450,9,73,253405,179086
2026-03-19T16:29:13.490,9,74,253405,179086
2026-03-19T16:29:13.530,9,75,253405,179086
2026-03-19T16:29:13.570,9,76,253405,179086
2026-03-19T16:29:13.609,9,77,253530,179130
2026-03-19T16:29:13.649,9,78,253530,179130
2026-03-19T16:29:13.690,9,79,253530,179130
2026-03-19T16:29:13.729,9,80,253530,179130
2026-03-19T16:29:13.769,9,81,253655,179161
2026-03-19T16:29:13.809,9,82,253655,179161
2026-03-19T16:29:13.848,9,83,253655,179161
2026-03-19T16:29:13.889,9,84,253655,179161
2026-03-19T16:29:13.929,9,85,253423,179097
2026-03-19T16:29:13.968,9,86,253423,179097
2026-03-19T16:29:14.008,9,87,253423,179097
2026-03-19T16:29:14.049,9,88,253423,179097
2026-03-19T16:29:14.089,9,89,253236,179047
2026-03-19T16:29:14.129,9,90,253236,179047
2026-03-19T16:29:14.168,9,91,253236,179047
2026-03-19T16:29:14.208,9,92,253236,179047
2026-03-19T16:29:14.248,9,93,253220,179043
2026-03-19T16:29:14.287,9,94,253220,179043
2026-03-19T16:29:14.327,9,95,253220,179043
2026-03-19T16:29:14.368,9,96,253220,179043
2026-03-19T16:29:14.407,9,97,253357,179095
2026-03-19T16:29:14.447,9,98,253357,179095
2026-03-19T16:29:14.487,9,99,253357,179095
2026-03-19T16:29:14.527,9,100,253357,179095
2026-03-19T16:29:14.566,9,101,253486,179134
2026-03-19T16:29:14.606,9,102,253486,179134
2026-03-19T16:29:14.647,9,103,253486,179134
2026-03-19T16:29:14.686,9,104,253486,179134
2026-03-19T16:29:14.726,9,105,253520,179135
2026-03-19T16:29:14.766,9,106,253520,179135
2026-03-19T16:29:14.805,9,107,253520,179135
2026-03-19T16:29:14.847,9,108,253520,179135
2026-03-19T16:29:14.885,9,109,253198,179024
2026-03-19T16:29:14.925,9,110,253198,179024
2026-03-19T16:29:14.965,9,111,253198,179024
2026-03-19T16:29:15.005,9,112,253198,179024
2026-03-19T16:29:15.045,9,113,253206,179032
2026-03-19T16:29:15.085,9,114,253206,179032
2026-03-19T16:29:15.124,9,115,253206,179032
2026-03-19T16:29:15.165,9,116,253206,179032
2026-03-19T16:29:15.204,9,117,253312,179068
2026-03-19T16:29:15.244,9,118,253312,179068
2026-03-19T16:29:15.285,9,119,253312,179068
2026-03-19T16:29:15.325,9,120,253312,179068
2026-03-19T16:29:15.364,9,121,253455,179118
2026-03-19T16:29:15.404,9,122,253455,179118
2026-03-19T16:29:15.443,9,123,253455,179118
2026-03-19T16:29:15.484,9,124,253455,179118
2026-03-19T16:29:15.523,9,125,253582,179156
2026-03-19T16:29:15.563,9,126,253582,179156
2026-03-19T16:29:15.603,9,127,253582,179156
2026-03-19T16:29:15.643,9,128,253582,179156
2026-03-19T16:29:15.682,9,129,253409,179107
2026-03-19T16:29:15.723,9,130,253409,179107
2026-03-19T16:29:15.763,9,131,253409,179107
2026-03-19T16:29:15.803,9,132,253409,179107
2026-03-19T16:29:15.843,9,133,253456,179130
2026-03-19T16:29:15.882,9,134,253456,179130
2026-03-19T16:29:15.922,9,135,253456,179130
2026-03-19T16:29:15.962,9,136,253456,179130
2026-03-19T16:29:16.002,9,137,253546,179154
2026-03-19T16:29:16.042,9,138,253546,179154
2026-03-19T16:29:16.082,9,139,253546,179154
2026-03-19T16:29:16.122,9,140,253546,179154
2026-03-19T16:29:16.161,9,141,253738,179214
2026-03-19T16:29:16.201,9,142,253738,179214
2026-03-19T16:29:16.241,9,143,253738,179214
2026-03-19T16:29:16.281,9,144,253738,179214
2026-03-19T16:29:16.321,9,145,253901,179272
2026-03-19T16:29:16.361,9,146,253901,179272
2026-03-19T16:29:16.401,9,147,253901,179272
2026-03-19T16:29:16.441,9,148,253901,179272
2026-03-19T16:29:16.480,9,149,253673,179201
2026-03-19T16:29:16.520,9,150,253673,179201
2026-03-19T16:29:16.560,9,151,253673,179201
2026-03-19T16:29:16.600,9,152,253673,179201
2026-03-19T16:29:16.640,9,153,253742,179217
2026-03-19T16:29:16.680,9,154,253742,179217
2026-03-19T16:29:16.719,9,155,253742,179217
2026-03-19T16:29:16.760,9,156,253742,179217
2026-03-19T16:29:16.799,9,157,253826,179242
2026-03-19T16:29:16.839,9,158,253826,179242
2026-03-19T16:29:16.879,9,159,253826,179242
2026-03-19T16:29:16.918,9,160,253826,179242
2026-03-19T16:29:16.958,9,161,253992,179295
2026-03-19T16:29:16.998,9,162,253992,179295
2026-03-19T16:29:17.038,9,163,253992,179295
2026-03-19T16:29:17.078,9,164,253992,179295
2026-03-19T16:29:17.118,9,165,253920,179274
2026-03-19T16:29:17.159,9,166,253920,179274
2026-03-19T16:29:17.198,9,167,253920,179274
2026-03-19T16:29:17.237,9,168,253920,179274
2026-03-19T16:29:17.278,9,169,253818,179234
2026-03-19T16:29:17.318,9,170,253818,179234
2026-03-19T16:29:17.358,9,171,253818,179234
2026-03-19T16:29:17.397,9,172,253818,179234
2026-03-19T16:29:17.437,9,173,253860,179251
2026-03-19T16:29:17.477,9,174,253860,179251
2026-03-19T16:29:17.517,9,175,253860,179251
2026-03-19T16:29:17.557,9,176,253860,179251
2026-03-19T16:29:17.602,9,177,253985,179285
2026-03-19T16:29:17.637,9,178,253985,179285
2026-03-19T16:29:17.677,9,179,253985,179285
2026-03-19T16:29:17.716,9,180,253985,179285
2026-03-19T16:29:17.756,9,181,254083,179311
2026-03-19T16:29:17.796,9,182,254083,179311
2026-03-19T16:29:17.836,9,183,254083,179311
2026-03-19T16:29:17.875,9,184,254083,179311
2026-03-19T16:29:17.916,9,185,253771,179238
2026-03-19T16:29:17.955,9,186,253771,179238
2026-03-19T16:29:17.995,9,187,253771,179238
2026-03-19T16:29:18.036,9,188,253771,179238
2026-03-19T16:29:18.075,9,189,253785,179237
2026-03-19T16:29:18.115,9,190,253785,179237
2026-03-19T16:29:18.155,9,191,253785,179237
2026-03-19T16:29:18.194,9,192,253785,179237
2026-03-19T16:29:18.234,9,193,253859,179254
2026-03-19T16:29:18.274,9,194,253859,179254
2026-03-19T16:29:18.314,9,195,253859,179254
2026-03-19T16:29:18.354,9,196,253859,179254
2026-03-19T16:29:18.394,9,197,253974,179289
2026-03-19T16:29:18.434,9,198,253974,179289
2026-03-19T16:29:18.473,9,199,253974,179289
2026-03-19T16:29:18.513,9,200,253974,179289
2026-03-19T16:29:18.553,9,201,253690,179195
2026-03-19T16:29:18.593,9,202,253690,179195
2026-03-19T16:29:18.633,9,203,253690,179195
2026-03-19T16:29:18.673,9,204,253690,179195
2026-03-19T16:29:18.713,9,205,253630,179184
2026-03-19T16:29:18.753,9,206,253630,179184
2026-03-19T16:29:18.793,9,207,253630,179184
2026-03-19T16:29:18.832,9,208,253630,179184
2026-03-19T16:29:18.872,9,209,253652,179190
2026-03-19T16:29:18.912,9,210,253652,179190
2026-03-19T16:29:18.952,9,211,253652,179190
2026-03-19T16:29:18.992,9,212,253652,179190
2026-03-19T16:29:19.032,9,213,253816,179236
2026-03-19T16:29:19.072,9,214,253816,179236
2026-03-19T16:29:19.112,9,215,253816,179236
2026-03-19T16:29:19.151,9,216,253816,179236
2026-03-19T16:29:19.191,9,217,253688,179204
2026-03-19T16:29:19.231,9,218,253688,179204
2026-03-19T16:29:19.271,9,219,253688,179204
2026-03-19T16:29:19.311,9,220,253688,179204
2026-03-19T16:29:19.351,9,221,253429,179112
2026-03-19T16:29:19.391,9,222,253429,179112
2026-03-19T16:29:19.431,9,223,253429,179112
2026-03-19T16:29:19.471,9,224,253429,179112
2026-03-19T16:29:19.510,9,225,253453,179129
2026-03-19T16:29:19.550,9,226,253453,179129
2026-03-19T16:29:19.590,9,227,253453,179129
2026-03-19T16:29:19.630,9,228,253453,179129
2026-03-19T16:29:19.670,9,229,253601,179176
2026-03-19T16:29:19.710,9,230,253601,179176
2026-03-19T16:29:19.750,9,231,253601,179176
2026-03-19T16:29:19.790,9,232,253601,179176
2026-03-19T16:29:19.830,9,233,253796,179243
2026-03-19T16:29:19.869,9,234,253796,179243
2026-03-19T16:29:19.909,9,235,253796,179243
2026-03-19T16:29:19.949,9,236,253796,179243
2026-03-19T16:29:19.989,9,237,253622,179174
2026-03-19T16:29:20.028,9,238,253622,179174
2026-03-19T16:29:20.068,9,239,253622,179174
2026-03-19T16:29:20.108,9,240,253622,179174
2026-03-19T16:29:20.149,9,241,253360,179095
2026-03-19T16:29:20.188,9,242,253360,179095
2026-03-19T16:29:20.228,9,243,253360,179095
2026-03-19T16:29:20.269,9,244,253360,179095
2026-03-19T16:29:20.308,9,245,253374,179122
2026-03-19T16:29:20.347,9,246,253374,179122
2026-03-19T16:29:20.388,9,247,253374,179122
2026-03-19T16:29:20.428,9,248,253374,179122
2026-03-19T16:29:20.468,9,249,253495,179153
2026-03-19T16:29:20.507,9,250,253495,179153
2026-03-19T16:29:27.166,10,0,253497,179133
2026-03-19T16:29:27.206,10,1,253497,179133
2026-03-19T16:29:27.246,10,2,253497,179133
2026-03-19T16:29:27.286,10,3,253497,179133
2026-03-19T16:29:27.326,10,4,253355,179075
2026-03-19T16:29:27.366,10,5,253355,179075
2026-03-19T16:29:27.405,10,6,253355,179075
2026-03-19T16:29:27.445,10,7,253355,179075
2026-03-19T16:29:27.486,10,8,253374,179085
2026-03-19T16:29:27.525,10,9,253374,179085
2026-03-19T16:29:27.564,10,10,253374,179085
2026-03-19T16:29:27.605,10,11,253374,179085
2026-03-19T16:29:27.645,10,12,253474,179125
2026-03-19T16:29:27.684,10,13,253474,179125
2026-03-19T16:29:27.724,10,14,253474,179125
2026-03-19T16:29:27.764,10,15,253474,179125
2026-03-19T16:29:27.804,10,16,253619,179171
2026-03-19T16:29:27.844,10,17,253619,179171
2026-03-19T16:29:27.884,10,18,253619,179171
2026-03-19T16:29:27.924,10,19,253619,179171
2026-03-19T16:29:27.964,10,20,253790,179216
2026-03-19T16:29:28.003,10,21,253790,179216
2026-03-19T16:29:28.044,10,22,253790,179216
2026-03-19T16:29:28.084,10,23,253790,179216
2026-03-19T16:29:28.123,10,24,253553,179149
2026-03-19T16:29:28.163,10,25,253553,179149
2026-03-19T16:29:28.203,10,26,253553,179149
2026-03-19T16:29:28.242,10,27,253553,179149
2026-03-19T16:29:28.282,10,28,253616,179180
2026-03-19T16:29:28.322,10,29,253616,179180
2026-03-19T16:29:28.362,10,30,253616,179180
2026-03-19T16:29:28.402,10,31,253616,179180
2026-03-19T16:29:28.442,10,32,253741,179220
2026-03-19T16:29:28.482,10,33,253741,179220
2026-03-19T16:29:28.521,10,34,253741,179220
2026-03-19T16:29:28.562,10,35,253741,179220
2026-03-19T16:29:28.601,10,36,253894,179266
2026-03-19T16:29:28.641,10,37,253894,179266
2026-03-19T16:29:28.681,10,38,253894,179266
2026-03-19T16:29:28.721,10,39,253894,179266
2026-03-19T16:29:28.761,10,40,253708,179221
2026-03-19T16:29:28.800,10,41,253708,179221
2026-03-19T16:29:28.840,10,42,253708,179221
2026-03-19T16:29:28.880,10,43,253708,179221
2026-03-19T16:29:28.920,10,44,253653,179204
2026-03-19T16:29:28.960,10,45,253653,179204
2026-03-19T16:29:29.000,10,46,253653,179204
2026-03-19T16:29:29.039,10,47,253653,179204
2026-03-19T16:29:29.079,10,48,253695,179228
2026-03-19T16:29:29.119,10,49,253695,179228
2026-03-19T16:29:29.159,10,50,253695,179228
2026-03-19T16:29:29.199,10,51,253695,179228
2026-03-19T16:29:29.239,10,52,253844,179277
2026-03-19T16:29:29.279,10,53,253844,179277
2026-03-19T16:29:29.319,10,54,253844,179277
2026-03-19T16:29:29.359,10,55,253844,179277
2026-03-19T16:29:29.399,10,56,253898,179293
2026-03-19T16:29:29.439,10,57,253898,179293
2026-03-19T16:29:29.479,10,58,253898,179293
2026-03-19T16:29:29.518,10,59,253898,179293
2026-03-19T16:29:29.558,10,60,253554,179173
2026-03-19T16:29:29.598,10,61,253554,179173
2026-03-19T16:29:29.638,10,62,253554,179173
2026-03-19T16:29:29.678,10,63,253554,179173
2026-03-19T16:29:29.718,10,64,253567,179196
2026-03-19T16:29:29.758,10,65,253567,179196
2026-03-19T16:29:29.798,10,66,253567,179196
2026-03-19T16:29:29.837,10,67,253567,179196
2026-03-19T16:29:29.877,10,68,253661,179222
2026-03-19T16:29:29.917,10,69,253661,179222
2026-03-19T16:29:29.957,10,70,253661,179222
2026-03-19T16:29:29.997,10,71,253661,179222
2026-03-19T16:29:30.037,10,72,253799,179280
2026-03-19T16:29:30.076,10,73,253799,179280
2026-03-19T16:29:30.117,10,74,253799,179280
2026-03-19T16:29:30.156,10,75,253799,179280
2026-03-19T16:29:30.196,10,76,253787,179277
2026-03-19T16:29:30.236,10,77,253787,179277
2026-03-19T16:29:30.276,10,78,253787,179277
2026-03-19T16:29:30.316,10,79,253787,179277
2026-03-19T16:29:30.356,10,80,253421,179165
2026-03-19T16:29:30.395,10,81,253421,179165
2026-03-19T16:29:30.437,10,82,253421,179165
2026-03-19T16:29:30.475,10,83,253421,179165
2026-03-19T16:29:30.516,10,84,253437,179171
2026-03-19T16:29:30.555,10,85,253437,179171
2026-03-19T16:29:30.595,10,86,253437,179171
2026-03-19T16:29:30.635,10,87,253437,179171
2026-03-19T16:29:30.675,10,88,253530,179211
2026-03-19T16:29:30.715,10,89,253530,179211
2026-03-19T16:29:30.755,10,90,253530,179211
2026-03-19T16:29:30.795,10,91,253530,179211
2026-03-19T16:29:30.834,10,92,253677,179255
2026-03-19T16:29:30.874,10,93,253677,179255
2026-03-19T16:29:30.914,10,94,253677,179255
2026-03-19T16:29:30.961,10,95,253677,179255
2026-03-19T16:29:31.036,10,96,253797,179292
2026-03-19T16:29:31.036,10,97,253797,179292
2026-03-19T16:29:31.073,10,98,253797,179292
2026-03-19T16:29:31.113,10,99,253797,179292
2026-03-19T16:29:31.153,10,100,253386,179176
2026-03-19T16:29:31.193,10,101,253386,179176
2026-03-19T16:29:31.233,10,102,253386,179176
2026-03-19T16:29:31.272,10,103,253386,179176
2026-03-19T16:29:31.313,10,104,253312,179143
2026-03-19T16:29:31.353,10,105,253312,179143
2026-03-19T16:29:31.392,10,106,253312,179143
2026-03-19T16:29:31.432,10,107,253312,179143
2026-03-19T16:29:31.472,10,108,253372,179162
2026-03-19T16:29:31.512,10,109,253372,179162
2026-03-19T16:29:31.552,10,110,253372,179162
2026-03-19T16:29:31.592,10,111,253372,179162
2026-03-19T16:29:31.632,10,112,253492,179200
2026-03-19T16:29:31.672,10,113,253492,179200
2026-03-19T16:29:31.712,10,114,253492,179200
2026-03-19T16:29:31.751,10,115,253492,179200
2026-03-19T16:29:31.791,10,116,253644,179237
2026-03-19T16:29:31.831,10,117,253644,179237
2026-03-19T16:29:31.871,10,118,253644,179237
2026-03-19T16:29:31.911,10,119,253644,179237
2026-03-19T16:29:31.951,10,120,253660,179252
2026-03-19T16:29:31.991,10,121,253660,179252
2026-03-19T16:29:32.030,10,122,253660,179252
2026-03-19T16:29:32.071,10,123,253660,179252
2026-03-19T16:29:32.111,10,124,253332,179145
2026-03-19T16:29:32.150,10,125,253332,179145
2026-03-19T16:29:32.190,10,126,253332,179145
2026-03-19T16:29:32.230,10,127,253332,179145
2026-03-19T16:29:32.270,10,128,253333,179143
2026-03-19T16:29:32.310,10,129,253333,179143
2026-03-19T16:29:32.350,10,130,253333,179143
2026-03-19T16:29:32.389,10,131,253333,179143
2026-03-19T16:29:32.429,10,132,253424,179184
2026-03-19T16:29:32.470,10,133,253424,179184
2026-03-19T16:29:32.509,10,134,253424,179184
2026-03-19T16:29:32.548,10,135,253424,179184
2026-03-19T16:29:32.589,10,136,253597,179245
2026-03-19T16:29:32.629,10,137,253597,179245
2026-03-19T16:29:32.668,10,138,253597,179245
2026-03-19T16:29:32.710,10,139,253597,179245
2026-03-19T16:29:32.749,10,140,253753,179307
2026-03-19T16:29:32.788,10,141,253753,179307
2026-03-19T16:29:32.828,10,142,253753,179307
2026-03-19T16:29:32.868,10,143,253753,179307
2026-03-19T16:29:32.908,10,144,253589,179251
2026-03-19T16:29:32.948,10,145,253589,179251
2026-03-19T16:29:32.988,10,146,253589,179251
2026-03-19T16:29:33.027,10,147,253589,179251
2026-03-19T16:29:33.067,10,148,253520,179227
2026-03-19T16:29:33.107,10,149,253520,179227
2026-03-19T16:29:33.147,10,150,253520,179227
2026-03-19T16:29:33.187,10,151,253520,179227
2026-03-19T16:29:33.228,10,152,253564,179238
2026-03-19T16:29:33.267,10,153,253564,179238
2026-03-19T16:29:33.307,10,154,253564,179238
2026-03-19T16:29:33.347,10,155,253564,179238
2026-03-19T16:29:33.386,10,156,253715,179279
2026-03-19T16:29:33.426,10,157,253715,179279
2026-03-19T16:29:33.465,10,158,253715,179279
2026-03-19T16:29:33.505,10,159,253715,179279
2026-03-19T16:29:33.545,10,160,253919,179356
2026-03-19T16:29:33.585,10,161,253919,179356
2026-03-19T16:29:33.625,10,162,253919,179356
2026-03-19T16:29:33.665,10,163,253919,179356
2026-03-19T16:29:33.705,10,164,253891,179352
2026-03-19T16:29:33.746,10,165,253891,179352
2026-03-19T16:29:33.785,10,166,253891,179352
2026-03-19T16:29:33.825,10,167,253891,179352
2026-03-19T16:29:33.865,10,168,253784,179313
2026-03-19T16:29:33.905,10,169,253784,179313
2026-03-19T16:29:33.945,10,170,253784,179313
2026-03-19T16:29:33.984,10,171,253784,179313
2026-03-19T16:29:34.025,10,172,253836,179336
2026-03-19T16:29:34.064,10,173,253836,179336
2026-03-19T16:29:34.104,10,174,253836,179336
2026-03-19T16:29:34.144,10,175,253836,179336
2026-03-19T16:29:34.184,10,176,253954,179374
2026-03-19T16:29:34.223,10,177,253954,179374
2026-03-19T16:29:34.264,10,178,253954,179374
2026-03-19T16:29:34.303,10,179,253954,179374
2026-03-19T16:29:34.343,10,180,254087,179426
2026-03-19T16:29:34.383,10,181,254087,179426
2026-03-19T16:29:34.423,10,182,254087,179426
2026-03-19T16:29:34.463,10,183,254087,179426
2026-03-19T16:29:34.502,10,184,253910,179367
2026-03-19T16:29:34.542,10,185,253910,179367
2026-03-19T16:29:34.582,10,186,253910,179367
2026-03-19T16:29:34.622,10,187,253910,179367
2026-03-19T16:29:34.662,10,188,253833,179333
2026-03-19T16:29:34.702,10,189,253833,179333
2026-03-19T16:29:34.742,10,190,253833,179333
2026-03-19T16:29:34.782,10,191,253833,179333
2026-03-19T16:29:34.822,10,192,253843,179330
2026-03-19T16:29:34.862,10,193,253843,179330
2026-03-19T16:29:34.902,10,194,253843,179330
2026-03-19T16:29:34.942,10,195,253843,179330
2026-03-19T16:29:34.981,10,196,253982,179381
2026-03-19T16:29:35.021,10,197,253982,179381
2026-03-19T16:29:35.061,10,198,253982,179381
2026-03-19T16:29:35.101,10,199,253982,179381
2026-03-19T16:29:35.140,10,200,254102,179421
2026-03-19T16:29:35.181,10,201,254102,179421
2026-03-19T16:29:35.220,10,202,254102,179421
2026-03-19T16:29:35.260,10,203,254102,179421
2026-03-19T16:29:35.300,10,204,253804,179307
2026-03-19T16:29:35.340,10,205,253804,179307
2026-03-19T16:29:35.380,10,206,253804,179307
2026-03-19T16:29:35.420,10,207,253804,179307
2026-03-19T16:29:35.460,10,208,253704,179282
2026-03-19T16:29:35.499,10,209,253704,179282
2026-03-19T16:29:35.539,10,210,253704,179282
2026-03-19T16:29:35.579,10,211,253704,179282
2026-03-19T16:29:35.619,10,212,253708,179276
2026-03-19T16:29:35.659,10,213,253708,179276
2026-03-19T16:29:35.699,10,214,253708,179276
2026-03-19T16:29:35.738,10,215,253708,179276
2026-03-19T16:29:35.778,10,216,253799,179305
2026-03-19T16:29:35.818,10,217,253799,179305
2026-03-19T16:29:35.858,10,218,253799,179305
2026-03-19T16:29:35.898,10,219,253799,179305
2026-03-19T16:29:35.938,10,220,253932,179340
2026-03-19T16:29:35.978,10,221,253932,179340
2026-03-19T16:29:36.018,10,222,253932,179340
2026-03-19T16:29:36.058,10,223,253932,179340
2026-03-19T16:29:36.098,10,224,253564,179227
2026-03-19T16:29:36.137,10,225,253564,179227
2026-03-19T16:29:36.177,10,226,253564,179227
2026-03-19T16:29:36.217,10,227,253564,179227
2026-03-19T16:29:36.257,10,228,253499,179204
2026-03-19T16:29:36.297,10,229,253499,179204
2026-03-19T16:29:36.337,10,230,253499,179204
2026-03-19T16:29:36.376,10,231,253499,179204
2026-03-19T16:29:36.416,10,232,253510,179209
2026-03-19T16:29:36.456,10,233,253510,179209
2026-03-19T16:29:36.497,10,234,253510,179209
2026-03-19T16:29:36.536,10,235,253510,179209
2026-03-19T16:29:36.575,10,236,253633,179228
2026-03-19T16:29:36.615,10,237,253633,179228
2026-03-19T16:29:36.656,10,238,253633,179228
2026-03-19T16:29:36.695,10,239,253633,179228
2026-03-19T16:29:36.735,10,240,253771,179278
2026-03-19T16:29:36.775,10,241,253771,179278
2026-03-19T16:29:36.815,10,242,253771,179278
2026-03-19T16:29:36.855,10,243,253771,179278
2026-03-19T16:29:36.895,10,244,253540,179209
2026-03-19T16:29:36.935,10,245,253540,179209
2026-03-19T16:29:36.975,10,246,253540,179209
2026-03-19T16:29:37.014,10,247,253540,179209
2026-03-19T16:29:37.055,10,248,253413,179158
2026-03-19T16:29:37.094,10,249,253413,179158
2026-03-19T16:29:37.134,10,250,253413,179158
2026-03-19T16:29:37.174,10,251,253413,179158
2026-03-19T16:29:38.211,11,0,253598,179217
2026-03-19T16:29:38.251,11,1,253598,179217
2026-03-19T16:29:38.291,11,2,253598,179217
2026-03-19T16:29:38.330,11,3,253760,179280
2026-03-19T16:29:38.370,11,4,253760,179280
2026-03-19T16:29:38.410,11,5,253760,179280
2026-03-19T16:29:38.450,11,6,253760,179280
2026-03-19T16:29:38.489,11,7,253929,179336
2026-03-19T16:29:38.530,11,8,253929,179336
2026-03-19T16:29:38.569,11,9,253929,179336
2026-03-19T16:29:38.609,11,10,253929,179336
2026-03-19T16:29:38.649,11,11,253757,179277
2026-03-19T16:29:38.689,11,12,253757,179277
2026-03-19T16:29:38.729,11,13,253757,179277
2026-03-19T16:29:38.769,11,14,253757,179277
2026-03-19T16:29:38.809,11,15,253817,179322
2026-03-19T16:29:38.848,11,16,253817,179322
2026-03-19T16:29:38.889,11,17,253817,179322
2026-03-19T16:29:38.929,11,18,253817,179322
2026-03-19T16:29:38.968,11,19,253875,179330
2026-03-19T16:29:39.009,11,20,253875,179330
2026-03-19T16:29:39.048,11,21,253875,179330
2026-03-19T16:29:39.088,11,22,253875,179330
2026-03-19T16:29:39.127,11,23,254032,179383
2026-03-19T16:29:39.168,11,24,254032,179383
2026-03-19T16:29:39.207,11,25,254032,179383
2026-03-19T16:29:39.247,11,26,254032,179383
2026-03-19T16:29:39.287,11,27,254123,179420
2026-03-19T16:29:39.328,11,28,254123,179420
2026-03-19T16:29:39.367,11,29,254123,179420
2026-03-19T16:29:39.407,11,30,254123,179420
2026-03-19T16:29:39.447,11,31,253868,179320
2026-03-19T16:29:39.487,11,32,253868,179320
2026-03-19T16:29:39.526,11,33,253868,179320
2026-03-19T16:29:39.567,11,34,253868,179320
2026-03-19T16:29:39.606,11,35,253862,179324
2026-03-19T16:29:39.646,11,36,253862,179324
2026-03-19T16:29:39.686,11,37,253862,179324
2026-03-19T16:29:39.725,11,38,253862,179324
2026-03-19T16:29:39.766,11,39,253896,179323
2026-03-19T16:29:39.806,11,40,253896,179323
2026-03-19T16:29:39.846,11,41,253896,179323
2026-03-19T16:29:39.885,11,42,253896,179323
2026-03-19T16:29:39.925,11,43,253995,179357
2026-03-19T16:29:39.964,11,44,253995,179357
2026-03-19T16:29:40.005,11,45,253995,179357
2026-03-19T16:29:40.045,11,46,253995,179357
2026-03-19T16:29:40.085,11,47,254092,179385
2026-03-19T16:29:40.125,11,48,254092,179385
2026-03-19T16:29:40.164,11,49,254092,179385
2026-03-19T16:29:40.204,11,50,254092,179385
2026-03-19T16:29:40.244,11,51,253705,179269
2026-03-19T16:29:40.284,11,52,253705,179269
2026-03-19T16:29:40.323,11,53,253705,179269
2026-03-19T16:29:40.363,11,54,253705,179269
2026-03-19T16:29:40.403,11,55,253673,179271
2026-03-19T16:29:40.443,11,56,253673,179271
2026-03-19T16:29:40.483,11,57,253673,179271
2026-03-19T16:29:40.523,11,58,253673,179271
2026-03-19T16:29:40.563,11,59,253699,179285
2026-03-19T16:29:40.602,11,60,253699,179285
2026-03-19T16:29:40.642,11,61,253699,179285
2026-03-19T16:29:40.683,11,62,253699,179285
2026-03-19T16:29:40.722,11,63,253812,179316
2026-03-19T16:29:40.763,11,64,253812,179316
2026-03-19T16:29:40.802,11,65,253812,179316
2026-03-19T16:29:40.842,11,66,253812,179316
2026-03-19T16:29:40.882,11,67,253928,179366
2026-03-19T16:29:40.922,11,68,253928,179366
2026-03-19T16:29:40.961,11,69,253928,179366
2026-03-19T16:29:41.002,11,70,253928,179366
2026-03-19T16:29:41.041,11,71,253521,179228
2026-03-19T16:29:41.081,11,72,253521,179228
2026-03-19T16:29:41.121,11,73,253521,179228
2026-03-19T16:29:41.161,11,74,253521,179228
2026-03-19T16:29:41.202,11,75,253494,179218
2026-03-19T16:29:41.241,11,76,253494,179218
2026-03-19T16:29:41.281,11,77,253494,179218
2026-03-19T16:29:41.321,11,78,253494,179218
2026-03-19T16:29:41.361,11,79,253503,179218
2026-03-19T16:29:41.400,11,80,253503,179218
2026-03-19T16:29:41.440,11,81,253503,179218
2026-03-19T16:29:41.480,11,82,253503,179218
2026-03-19T16:29:41.520,11,83,253632,179259
2026-03-19T16:29:41.560,11,84,253632,179259
2026-03-19T16:29:41.599,11,85,253632,179259
2026-03-19T16:29:41.640,11,86,253632,179259
2026-03-19T16:29:41.679,11,87,253780,179308
2026-03-19T16:29:41.719,11,88,253780,179308
2026-03-19T16:29:41.759,11,89,253780,179308
2026-03-19T16:29:41.799,11,90,253780,179308
2026-03-19T16:29:41.839,11,91,253475,179215
2026-03-19T16:29:41.880,11,92,253475,179215
2026-03-19T16:29:41.918,11,93,253475,179215
2026-03-19T16:29:41.958,11,94,253475,179215
2026-03-19T16:29:41.999,11,95,253385,179176
2026-03-19T16:29:42.038,11,96,253385,179176
2026-03-19T16:29:42.078,11,97,253385,179176
2026-03-19T16:29:42.118,11,98,253385,179176
2026-03-19T16:29:42.158,11,99,253392,179169
2026-03-19T16:29:42.198,11,100,253392,179169
2026-03-19T16:29:42.238,11,101,253392,179169
2026-03-19T16:29:42.278,11,102,253392,179169
2026-03-19T16:29:42.317,11,103,253517,179212
2026-03-19T16:29:42.357,11,104,253517,179212
2026-03-19T16:29:42.397,11,105,253517,179212
2026-03-19T16:29:42.437,11,106,253517,179212
2026-03-19T16:29:42.476,11,107,253657,179270
2026-03-19T16:29:42.516,11,108,253657,179270
2026-03-19T16:29:42.556,11,109,253657,179270
2026-03-19T16:29:42.596,11,110,253657,179270
2026-03-19T16:29:42.636,11,111,253708,179282
2026-03-19T16:29:42.676,11,112,253708,179282
2026-03-19T16:29:42.716,11,113,253708,179282
2026-03-19T16:29:42.756,11,114,253708,179282
2026-03-19T16:29:42.796,11,115,253385,179166
2026-03-19T16:29:42.835,11,116,253385,179166
2026-03-19T16:29:42.876,11,117,253385,179166
2026-03-19T16:29:42.915,11,118,253385,179166
2026-03-19T16:29:42.955,11,119,253394,179183
2026-03-19T16:29:42.995,11,120,253394,179183
2026-03-19T16:29:43.035,11,121,253394,179183
2026-03-19T16:29:43.075,11,122,253394,179183
2026-03-19T16:29:43.116,11,123,253477,179205
2026-03-19T16:29:43.154,11,124,253477,179205
2026-03-19T16:29:43.194,11,125,253477,179205
2026-03-19T16:29:43.235,11,126,253477,179205
2026-03-19T16:29:43.274,11,127,253613,179241
2026-03-19T16:29:43.314,11,128,253613,179241
2026-03-19T16:29:43.354,11,129,253613,179241
2026-03-19T16:29:43.394,11,130,253613,179241
2026-03-19T16:29:43.433,11,131,253734,179276
2026-03-19T16:29:43.473,11,132,253734,179276
2026-03-19T16:29:43.513,11,133,253734,179276
2026-03-19T16:29:43.553,11,134,253734,179276
2026-03-19T16:29:43.593,11,135,253511,179225
2026-03-19T16:29:43.633,11,136,253511,179225
2026-03-19T16:29:43.673,11,137,253511,179225
2026-03-19T16:29:43.712,11,138,253511,179225
2026-03-19T16:29:43.753,11,139,253536,179227
2026-03-19T16:29:43.792,11,140,253536,179227
2026-03-19T16:29:43.833,11,141,253536,179227
2026-03-19T16:29:43.873,11,142,253536,179227
2026-03-19T16:29:43.912,11,143,253603,179244
2026-03-19T16:29:43.952,11,144,253603,179244
2026-03-19T16:29:43.992,11,145,253603,179244
2026-03-19T16:29:44.031,11,146,253603,179244
2026-03-19T16:29:44.072,11,147,253784,179312
2026-03-19T16:29:44.112,11,148,253784,179312
2026-03-19T16:29:44.151,11,149,253784,179312
2026-03-19T16:29:44.191,11,150,253784,179312
2026-03-19T16:29:44.231,11,151,254008,179399
2026-03-19T16:29:44.271,11,152,254008,179399
2026-03-19T16:29:44.311,11,153,254008,179399
2026-03-19T16:29:44.351,11,154,254008,179399
2026-03-19T16:29:44.391,11,155,253836,179344
2026-03-19T16:29:44.430,11,156,253836,179344
2026-03-19T16:29:44.470,11,157,253836,179344
2026-03-19T16:29:44.510,11,158,253836,179344
2026-03-19T16:29:44.550,11,159,253901,179374
2026-03-19T16:29:44.590,11,160,253901,179374
2026-03-19T16:29:44.630,11,161,253901,179374
2026-03-19T16:29:44.670,11,162,253901,179374
2026-03-19T16:29:44.710,11,163,253969,179391
2026-03-19T16:29:44.749,11,164,253969,179391
2026-03-19T16:29:44.789,11,165,253969,179391
2026-03-19T16:29:44.829,11,166,253969,179391
2026-03-19T16:29:44.869,11,167,254121,179451
2026-03-19T16:29:44.909,11,168,254121,179451
2026-03-19T16:29:44.948,11,169,254121,179451
2026-03-19T16:29:44.988,11,170,254121,179451
2026-03-19T16:29:45.028,11,171,254073,179414
2026-03-19T16:29:45.069,11,172,254073,179414
2026-03-19T16:29:45.108,11,173,254073,179414
2026-03-19T16:29:45.148,11,174,254073,179414
2026-03-19T16:29:45.188,11,175,253901,179370
2026-03-19T16:29:45.227,11,176,253901,179370
2026-03-19T16:29:45.267,11,177,253901,179370
2026-03-19T16:29:45.307,11,178,253901,179370
2026-03-19T16:29:45.347,11,179,253945,179392
2026-03-19T16:29:45.387,11,180,253945,179392
2026-03-19T16:29:45.427,11,181,253945,179392
2026-03-19T16:29:45.467,11,182,253945,179392
2026-03-19T16:29:45.506,11,183,254053,179426
2026-03-19T16:29:45.547,11,184,254053,179426
2026-03-19T16:29:45.587,11,185,254053,179426
2026-03-19T16:29:45.627,11,186,254053,179426
2026-03-19T16:29:45.667,11,187,254130,179442
2026-03-19T16:29:45.706,11,188,254130,179442
2026-03-19T16:29:45.746,11,189,254130,179442
2026-03-19T16:29:45.786,11,190,254130,179442
2026-03-19T16:29:45.827,11,191,253798,179332
2026-03-19T16:29:45.866,11,192,253798,179332
2026-03-19T16:29:45.906,11,193,253798,179332
2026-03-19T16:29:45.945,11,194,253798,179332
2026-03-19T16:29:45.985,11,195,253809,179339
2026-03-19T16:29:46.025,11,196,253809,179339
2026-03-19T16:29:46.065,11,197,253809,179339
2026-03-19T16:29:46.105,11,198,253809,179339
2026-03-19T16:29:46.145,11,199,253880,179369
2026-03-19T16:29:46.185,11,200,253880,179369
2026-03-19T16:29:46.225,11,201,253880,179369
2026-03-19T16:29:46.264,11,202,253880,179369
2026-03-19T16:29:46.304,11,203,254010,179416
2026-03-19T16:29:46.345,11,204,254010,179416
2026-03-19T16:29:46.385,11,205,254010,179416
2026-03-19T16:29:46.424,11,206,254010,179416
2026-03-19T16:29:46.464,11,207,253804,179348
2026-03-19T16:29:46.504,11,208,253804,179348
2026-03-19T16:29:46.544,11,209,253804,179348
2026-03-19T16:29:46.583,11,210,253804,179348
2026-03-19T16:29:46.624,11,211,253592,179287
2026-03-19T16:29:46.663,11,212,253592,179287
2026-03-19T16:29:46.703,11,213,253592,179287
2026-03-19T16:29:46.743,11,214,253592,179287
2026-03-19T16:29:46.783,11,215,253614,179299
2026-03-19T16:29:46.822,11,216,253614,179299
2026-03-19T16:29:46.862,11,217,253614,179299
2026-03-19T16:29:46.903,11,218,253614,179299
2026-03-19T16:29:46.942,11,219,253722,179332
2026-03-19T16:29:46.982,11,220,253722,179332
2026-03-19T16:29:47.022,11,221,253722,179332
2026-03-19T16:29:47.061,11,222,253722,179332
2026-03-19T16:29:47.101,11,223,253857,179377
2026-03-19T16:29:47.142,11,224,253857,179377
2026-03-19T16:29:47.181,11,225,253857,179377
