timestamp,window,sample,ir_raw,red_raw
2026-03-19T16:00:12.310,1,0,250599,180097
2026-03-19T16:00:12.350,1,1,250685,180133
2026-03-19T16:00:12.390,1,2,250685,180133
2026-03-19T16:00:12.430,1,3,250685,180133
2026-03-19T16:00:12.469,1,4,250685,180133
2026-03-19T16:00:12.509,1,5,250630,180088
2026-03-19T16:00:12.549,1,6,250630,180088
2026-03-19T16:00:12.589,1,7,250630,180088
2026-03-19T16:00:12.629,1,8,250630,180088
2026-03-19T16:00:12.669,1,9,250655,180120
2026-03-19T16:00:12.708,1,10,250655,180120
2026-03-19T16:00:12.748,1,11,250655,180120
2026-03-19T16:00:12.788,1,12,250655,180120
2026-03-19T16:00:12.828,1,13,250672,180130
2026-03-19T16:00:12.868,1,14,250672,180130
2026-03-19T16:00:12.908,1,15,250672,180130
2026-03-19T16:00:12.949,1,16,250672,180130
2026-03-19T16:00:12.988,1,17,250710,180134
2026-03-19T16:00:13.027,1,18,250710,180134
2026-03-19T16:00:13.067,1,19,250710,180134
2026-03-19T16:00:13.107,1,20,250710,180134
2026-03-19T16:00:13.147,1,21,250615,180095
2026-03-19T16:00:13.188,1,22,250615,180095
2026-03-19T16:00:13.227,1,23,250615,180095
2026-03-19T16:00:13.267,1,24,250615,180095
2026-03-19T16:00:13.307,1,25,250583,180095
2026-03-19T16:00:13.347,1,26,250583,180095
2026-03-19T16:00:13.387,1,27,250583,180095
2026-03-19T16:00:13.427,1,28,250583,180095
2026-03-19T16:00:13.466,1,29,250597,180065
2026-03-19T16:00:13.506,1,30,250597,180065
2026-03-19T16:00:13.547,1,31,250597,180065
2026-03-19T16:00:13.586,1,32,250597,180065
2026-03-19T16:00:13.626,1,33,250636,180038
2026-03-19T16:00:13.666,1,34,250636,180038
2026-03-19T16:00:13.706,1,35,250636,180038
2026-03-19T16:00:13.745,1,36,250636,180038
2026-03-19T16:00:13.785,1,37,250511,179917
2026-03-19T16:00:13.825,1,38,250511,179917
2026-03-19T16:00:13.865,1,39,250511,179917
2026-03-19T16:00:13.905,1,40,250511,179917
2026-03-19T16:00:13.945,1,41,250460,179850
2026-03-19T16:00:13.985,1,42,250460,179850
2026-03-19T16:00:14.025,1,43,250460,179850
2026-03-19T16:00:14.065,1,44,250460,179850
2026-03-19T16:00:14.104,1,45,250467,179787
2026-03-19T16:00:14.145,1,46,250467,179787
2026-03-19T16:00:14.184,1,47,250467,179787
2026-03-19T16:00:14.224,1,48,250467,179787
2026-03-19T16:00:14.263,1,49,250496,179806
2026-03-19T16:00:14.303,1,50,250496,179806
2026-03-19T16:00:14.343,1,51,250496,179806
2026-03-19T16:00:14.383,1,52,250496,179806
2026-03-19T16:00:14.423,1,53,250421,179725
2026-03-19T16:00:14.463,1,54,250421,179725
2026-03-19T16:00:14.505,1,55,250421,179725
2026-03-19T16:00:14.543,1,56,250421,179725
2026-03-19T16:00:14.583,1,57,250379,179677
2026-03-19T16:00:14.624,1,58,250379,179677
2026-03-19T16:00:14.663,1,59,250379,179677
2026-03-19T16:00:14.703,1,60,250379,179677
2026-03-19T16:00:14.742,1,61,250377,179627
2026-03-19T16:00:14.782,1,62,250377,179627
2026-03-19T16:00:14.822,1,63,250377,179627
2026-03-19T16:00:14.862,1,64,250377,179627
2026-03-19T16:00:14.901,1,65,250424,179629
2026-03-19T16:00:14.942,1,66,250424,179629
2026-03-19T16:00:14.981,1,67,250424,179629
2026-03-19T16:00:15.021,1,68,250424,179629
2026-03-19T16:00:15.061,1,69,250408,179559
2026-03-19T16:00:15.101,1,70,250408,179559
2026-03-19T16:00:15.149,1,71,250408,179559
2026-03-19T16:00:15.181,1,72,250408,179559
2026-03-19T16:00:15.221,1,73,250369,179512
2026-03-19T16:00:15.260,1,74,250369,179512
2026-03-19T16:00:15.300,1,75,250369,179512
2026-03-19T16:00:15.340,1,76,250369,179512
2026-03-19T16:00:15.380,1,77,250370,179512
2026-03-19T16:00:15.420,1,78,250370,179512
2026-03-19T16:00:15.460,1,79,250370,179512
2026-03-19T16:00:15.499,1,80,250370,179512
2026-03-19T16:00:15.539,1,81,250395,179494
2026-03-19T16:00:15.580,1,82,250395,179494
2026-03-19T16:00:15.619,1,83,250395,179494
2026-03-19T16:00:15.659,1,84,250395,179494
2026-03-19T16:00:15.699,1,85,250442,179534
2026-03-19T16:00:15.739,1,86,250442,179534
2026-03-19T16:00:15.779,1,87,250442,179534
2026-03-19T16:00:15.818,1,88,250442,179534
2026-03-19T16:00:15.858,1,89,250365,179502
2026-03-19T16:00:15.898,1,90,250365,179502
2026-03-19T16:00:15.938,1,91,250365,179502
2026-03-19T16:00:15.978,1,92,250365,179502
2026-03-19T16:00:16.018,1,93,250342,179511
2026-03-19T16:00:16.058,1,94,250342,179511
2026-03-19T16:00:16.098,1,95,250342,179511
2026-03-19T16:00:16.138,1,96,250342,179511
2026-03-19T16:00:16.177,1,97,250355,179523
2026-03-19T16:00:16.217,1,98,250355,179523
2026-03-19T16:00:16.257,1,99,250355,179523
2026-03-19T16:00:16.297,1,100,250355,179523
2026-03-19T16:00:16.337,1,101,250415,179602
2026-03-19T16:00:16.377,1,102,250415,179602
2026-03-19T16:00:16.416,1,103,250415,179602
2026-03-19T16:00:16.456,1,104,250415,179602
2026-03-19T16:00:16.496,1,105,250376,179632
2026-03-19T16:00:16.537,1,106,250376,179632
2026-03-19T16:00:16.576,1,107,250376,179632
2026-03-19T16:00:16.616,1,108,250376,179632
2026-03-19T16:00:16.656,1,109,250353,179704
2026-03-19T16:00:16.695,1,110,250353,179704
2026-03-19T16:00:16.735,1,111,250353,179704
2026-03-19T16:00:16.775,1,112,250353,179704
2026-03-19T16:00:16.815,1,113,250406,179793
2026-03-19T16:00:16.855,1,114,250406,179793
2026-03-19T16:00:16.895,1,115,250406,179793
2026-03-19T16:00:16.934,1,116,250406,179793
2026-03-19T16:00:16.974,1,117,250480,179866
2026-03-19T16:00:17.014,1,118,250480,179866
2026-03-19T16:00:17.054,1,119,250480,179866
2026-03-19T16:00:17.094,1,120,250480,179866
2026-03-19T16:00:17.134,1,121,250568,179924
2026-03-19T16:00:17.173,1,122,250568,179924
2026-03-19T16:00:17.213,1,123,250568,179924
2026-03-19T16:00:17.254,1,124,250568,179924
2026-03-19T16:00:17.293,1,125,250524,179945
2026-03-19T16:00:17.333,1,126,250524,179945
2026-03-19T16:00:17.373,1,127,250524,179945
2026-03-19T16:00:17.413,1,128,250524,179945
2026-03-19T16:00:17.453,1,129,250578,180018
2026-03-19T16:00:17.493,1,130,250578,180018
2026-03-19T16:00:17.532,1,131,250578,180018
2026-03-19T16:00:17.573,1,132,250578,180018
2026-03-19T16:00:17.612,1,133,250623,180078
2026-03-19T16:00:17.653,1,134,250623,180078
2026-03-19T16:00:17.693,1,135,250623,180078
2026-03-19T16:00:17.732,1,136,250623,180078
2026-03-19T16:00:17.772,1,137,250682,180109
2026-03-19T16:00:17.811,1,138,250682,180109
2026-03-19T16:00:17.851,1,139,250682,180109
2026-03-19T16:00:17.891,1,140,250682,180109
2026-03-19T16:00:17.931,1,141,250610,180107
2026-03-19T16:00:17.971,1,142,250610,180107
2026-03-19T16:00:18.011,1,143,250610,180107
2026-03-19T16:00:18.051,1,144,250610,180107
2026-03-19T16:00:18.091,1,145,250620,180153
2026-03-19T16:00:18.131,1,146,250620,180153
2026-03-19T16:00:18.171,1,147,250620,180153
2026-03-19T16:00:18.210,1,148,250620,180153
2026-03-19T16:00:18.250,1,149,250659,180190
2026-03-19T16:00:18.290,1,150,250659,180190
2026-03-19T16:00:18.330,1,151,250659,180190
2026-03-19T16:00:18.370,1,152,250659,180190
2026-03-19T16:00:18.410,1,153,250701,179928
2026-03-19T16:00:18.449,1,154,250701,179928
2026-03-19T16:00:18.489,1,155,250701,179928
2026-03-19T16:00:18.529,1,156,250701,179928
2026-03-19T16:00:18.569,1,157,250589,179886
2026-03-19T16:00:18.610,1,158,250589,179886
2026-03-19T16:00:18.649,1,159,250589,179886
2026-03-19T16:00:18.689,1,160,250589,179886
2026-03-19T16:00:18.729,1,161,250590,179898
2026-03-19T16:00:18.768,1,162,250590,179898
2026-03-19T16:00:18.808,1,163,250590,179898
2026-03-19T16:00:18.849,1,164,250590,179898
2026-03-19T16:00:18.888,1,165,250604,179915
2026-03-19T16:00:18.928,1,166,250604,179915
2026-03-19T16:00:18.968,1,167,250604,179915
2026-03-19T16:00:19.008,1,168,250604,179915
2026-03-19T16:00:19.047,1,169,250638,179907
2026-03-19T16:00:19.087,1,170,250638,179907
2026-03-19T16:00:19.127,1,171,250638,179907
2026-03-19T16:00:19.167,1,172,250638,179907
2026-03-19T16:00:19.207,1,173,250507,179804
2026-03-19T16:00:19.248,1,174,250507,179804
2026-03-19T16:00:19.287,1,175,250507,179804
2026-03-19T16:00:19.327,1,176,250507,179804
2026-03-19T16:00:19.367,1,177,250488,179774
2026-03-19T16:00:19.407,1,178,250488,179774
2026-03-19T16:00:19.446,1,179,250488,179774
2026-03-19T16:00:19.486,1,180,250488,179774
2026-03-19T16:00:19.526,1,181,250512,179730
2026-03-19T16:00:19.566,1,182,250512,179730
2026-03-19T16:00:19.605,1,183,250512,179730
2026-03-19T16:00:19.645,1,184,250512,179730
2026-03-19T16:00:19.686,1,185,250560,179714
2026-03-19T16:00:19.725,1,186,250560,179714
2026-03-19T16:00:19.765,1,187,250560,179714
2026-03-19T16:00:19.805,1,188,250560,179714
2026-03-19T16:00:19.845,1,189,250459,179558
2026-03-19T16:00:19.885,1,190,250459,179558
2026-03-19T16:00:19.925,1,191,250459,179558
2026-03-19T16:00:19.965,1,192,250459,179558
2026-03-19T16:00:20.005,1,193,250415,179523
2026-03-19T16:00:20.045,1,194,250415,179523
2026-03-19T16:00:20.085,1,195,250415,179523
2026-03-19T16:00:20.124,1,196,250415,179523
2026-03-19T16:00:20.164,1,197,250434,179480
2026-03-19T16:00:20.204,1,198,250434,179480
2026-03-19T16:00:20.244,1,199,250434,179480
2026-03-19T16:00:20.284,1,200,250434,179480
2026-03-19T16:00:20.325,1,201,250487,179447
2026-03-19T16:00:20.364,1,202,250487,179447
2026-03-19T16:00:20.403,1,203,250487,179447
2026-03-19T16:00:20.444,1,204,250487,179447
2026-03-19T16:00:20.483,1,205,250455,179394
2026-03-19T16:00:20.523,1,206,250455,179394
2026-03-19T16:00:20.564,1,207,250455,179394
2026-03-19T16:00:20.603,1,208,250455,179394
2026-03-19T16:00:20.643,1,209,250368,179360
2026-03-19T16:00:20.682,1,210,250368,179360
2026-03-19T16:00:20.722,1,211,250368,179360
2026-03-19T16:00:20.762,1,212,250368,179360
2026-03-19T16:00:20.802,1,213,250378,179358
2026-03-19T16:00:20.842,1,214,250378,179358
2026-03-19T16:00:20.882,1,215,250378,179358
2026-03-19T16:00:20.922,1,216,250378,179358
2026-03-19T16:00:20.961,1,217,250398,179359
2026-03-19T16:00:21.002,1,218,250398,179359
2026-03-19T16:00:21.042,1,219,250398,179359
2026-03-19T16:00:21.081,1,220,250398,179359
2026-03-19T16:00:21.121,1,221,250459,179389
2026-03-19T16:00:21.160,1,222,250459,179389
2026-03-19T16:00:21.200,1,223,250459,179389
2026-03-19T16:00:21.240,1,224,250459,179389
2026-03-19T16:00:21.280,1,225,250355,179318
2026-03-19T16:00:21.320,1,226,250355,179318
2026-03-19T16:00:21.361,1,227,250355,179318
2026-03-19T16:00:21.400,1,228,250355,179318
2026-03-19T16:00:21.440,1,229,250317,179326
2026-03-19T16:00:21.480,1,230,250317,179326
2026-03-19T16:00:21.520,1,231,250317,179326
2026-03-19T16:00:21.559,1,232,250317,179326
2026-03-19T16:00:21.600,1,233,250335,179324
2026-03-19T16:00:21.639,1,234,250335,179324
2026-03-19T16:00:21.679,1,235,250335,179324
2026-03-19T16:00:21.719,1,236,250335,179324
2026-03-19T16:00:21.759,1,237,250375,179330
2026-03-19T16:00:21.799,1,238,250375,179330
2026-03-19T16:00:21.839,1,239,250375,179330
2026-03-19T16:00:21.878,1,240,250375,179330
2026-03-19T16:00:21.919,1,241,250432,179351
2026-03-19T16:00:21.958,1,242,250432,179351
2026-03-19T16:00:21.998,1,243,250432,179351
2026-03-19T16:00:22.038,1,244,250432,179351
2026-03-19T16:00:22.078,1,245,250317,179284
2026-03-19T16:00:22.117,1,246,250317,179284
2026-03-19T16:00:22.157,1,247,250317,179284
2026-03-19T16:00:22.198,1,248,250317,179284
2026-03-19T16:00:22.237,1,249,250314,179278
2026-03-19T16:00:22.278,1,250,250314,179278
2026-03-19T16:00:22.317,1,251,250314,179278
2026-03-19T16:00:34.636,2,0,250365,179555
2026-03-19T16:00:34.676,2,1,250268,179506
2026-03-19T16:00:34.716,2,2,250268,179506
2026-03-19T16:00:34.756,2,3,250268,179506
2026-03-19T16:00:34.795,2,4,250268,179506
2026-03-19T16:00:34.835,2,5,250232,179514
2026-03-19T16:00:34.875,2,6,250232,179514
2026-03-19T16:00:34.915,2,7,250232,179514
2026-03-19T16:00:34.955,2,8,250232,179514
2026-03-19T16:00:34.995,2,9,250257,179546
2026-03-19T16:00:35.035,2,10,250257,179546
2026-03-19T16:00:35.074,2,11,250257,179546
2026-03-19T16:00:35.115,2,12,250257,179546
2026-03-19T16:00:35.155,2,13,250270,179577
2026-03-19T16:00:35.195,2,14,250270,179577
2026-03-19T16:00:35.235,2,15,250270,179577
2026-03-19T16:00:35.275,2,16,250270,179577
2026-03-19T16:00:35.314,2,17,250211,179539
2026-03-19T16:00:35.354,2,18,250211,179539
2026-03-19T16:00:35.394,2,19,250211,179539
2026-03-19T16:00:35.433,2,20,250211,179539
2026-03-19T16:00:35.473,2,21,250147,179520
2026-03-19T16:00:35.513,2,22,250147,179520
2026-03-19T16:00:35.554,2,23,250147,179520
2026-03-19T16:00:35.593,2,24,250147,179520
2026-03-19T16:00:35.633,2,25,250148,179500
2026-03-19T16:00:35.673,2,26,250148,179500
2026-03-19T16:00:35.712,2,27,250148,179500
2026-03-19T16:00:35.752,2,28,250148,179500
2026-03-19T16:00:35.792,2,29,250191,179493
2026-03-19T16:00:35.832,2,30,250191,179493
2026-03-19T16:00:35.871,2,31,250191,179493
2026-03-19T16:00:35.912,2,32,250191,179493
2026-03-19T16:00:35.952,2,33,250172,179459
2026-03-19T16:00:35.992,2,34,250172,179459
2026-03-19T16:00:36.031,2,35,250172,179459
2026-03-19T16:00:36.071,2,36,250172,179459
2026-03-19T16:00:36.111,2,37,250059,179401
2026-03-19T16:00:36.152,2,38,250059,179401
2026-03-19T16:00:36.191,2,39,250059,179401
2026-03-19T16:00:36.231,2,40,250059,179401
2026-03-19T16:00:36.271,2,41,250044,179386
2026-03-19T16:00:36.310,2,42,250044,179386
2026-03-19T16:00:36.350,2,43,250044,179386
2026-03-19T16:00:36.391,2,44,250044,179386
2026-03-19T16:00:36.430,2,45,250056,179372
2026-03-19T16:00:36.470,2,46,250056,179372
2026-03-19T16:00:36.510,2,47,250056,179372
2026-03-19T16:00:36.550,2,48,250056,179372
2026-03-19T16:00:36.589,2,49,250111,179426
2026-03-19T16:00:36.629,2,50,250111,179426
2026-03-19T16:00:36.670,2,51,250111,179426
2026-03-19T16:00:36.709,2,52,250111,179426
2026-03-19T16:00:36.749,2,53,250060,179423
2026-03-19T16:00:36.789,2,54,250060,179423
2026-03-19T16:00:36.828,2,55,250060,179423
2026-03-19T16:00:36.869,2,56,250060,179423
2026-03-19T16:00:36.908,2,57,250011,179407
2026-03-19T16:00:36.948,2,58,250011,179407
2026-03-19T16:00:36.988,2,59,250011,179407
2026-03-19T16:00:37.027,2,60,250011,179407
2026-03-19T16:00:37.067,2,61,249980,179379
2026-03-19T16:00:37.107,2,62,249980,179379
2026-03-19T16:00:37.147,2,63,249980,179379
2026-03-19T16:00:37.187,2,64,249980,179379
2026-03-19T16:00:37.227,2,65,250013,179360
2026-03-19T16:00:37.267,2,66,250013,179360
2026-03-19T16:00:37.307,2,67,250013,179360
2026-03-19T16:00:37.347,2,68,250013,179360
2026-03-19T16:00:37.387,2,69,250067,179372
2026-03-19T16:00:37.427,2,70,250067,179372
2026-03-19T16:00:37.467,2,71,250067,179372
2026-03-19T16:00:37.506,2,72,250067,179372
2026-03-19T16:00:37.546,2,73,250002,179303
2026-03-19T16:00:37.586,2,74,250002,179303
2026-03-19T16:00:37.626,2,75,250002,179303
2026-03-19T16:00:37.666,2,76,250002,179303
2026-03-19T16:00:37.707,2,77,249956,179280
2026-03-19T16:00:37.746,2,78,249956,179280
2026-03-19T16:00:37.786,2,79,249956,179280
2026-03-19T16:00:37.825,2,80,249956,179280
2026-03-19T16:00:37.865,2,81,249958,179272
2026-03-19T16:00:37.912,2,82,249958,179272
2026-03-19T16:00:37.945,2,83,249958,179272
2026-03-19T16:00:37.985,2,84,249958,179272
2026-03-19T16:00:38.025,2,85,250031,179296
2026-03-19T16:00:38.065,2,86,250031,179296
2026-03-19T16:00:38.104,2,87,250031,179296
2026-03-19T16:00:38.144,2,88,250031,179296
2026-03-19T16:00:38.184,2,89,250090,179344
2026-03-19T16:00:38.224,2,90,250090,179344
2026-03-19T16:00:38.264,2,91,250090,179344
2026-03-19T16:00:38.304,2,92,250090,179344
2026-03-19T16:00:38.343,2,93,250067,179285
2026-03-19T16:00:38.383,2,94,250067,179285
2026-03-19T16:00:38.423,2,95,250067,179285
2026-03-19T16:00:38.464,2,96,250067,179285
2026-03-19T16:00:38.503,2,97,250028,179262
2026-03-19T16:00:38.543,2,98,250028,179262
2026-03-19T16:00:38.582,2,99,250028,179262
2026-03-19T16:00:38.622,2,100,250028,179262
2026-03-19T16:00:38.663,2,101,250012,179247
2026-03-19T16:00:38.703,2,102,250012,179247
2026-03-19T16:00:38.743,2,103,250012,179247
2026-03-19T16:00:38.782,2,104,250012,179247
2026-03-19T16:00:38.822,2,105,250065,179234
2026-03-19T16:00:38.862,2,106,250065,179234
2026-03-19T16:00:38.902,2,107,250065,179234
2026-03-19T16:00:38.941,2,108,250065,179234
2026-03-19T16:00:38.981,2,109,250096,179272
2026-03-19T16:00:39.021,2,110,250096,179272
2026-03-19T16:00:39.061,2,111,250096,179272
2026-03-19T16:00:39.101,2,112,250096,179272
2026-03-19T16:00:39.141,2,113,250083,179203
2026-03-19T16:00:39.180,2,114,250083,179203
2026-03-19T16:00:39.221,2,115,250083,179203
2026-03-19T16:00:39.260,2,116,250083,179203
2026-03-19T16:00:39.300,2,117,249941,179154
2026-03-19T16:00:39.340,2,118,249941,179154
2026-03-19T16:00:39.380,2,119,249941,179154
2026-03-19T16:00:39.419,2,120,249941,179154
2026-03-19T16:00:39.459,2,121,249678,179187
2026-03-19T16:00:39.499,2,122,249678,179187
2026-03-19T16:00:39.540,2,123,249678,179187
2026-03-19T16:00:39.579,2,124,249678,179187
2026-03-19T16:00:39.619,2,125,249739,179293
2026-03-19T16:00:39.659,2,126,249739,179293
2026-03-19T16:00:39.699,2,127,249739,179293
2026-03-19T16:00:39.739,2,128,249739,179293
2026-03-19T16:00:39.780,2,129,249856,179375
2026-03-19T16:00:39.818,2,130,249856,179375
2026-03-19T16:00:39.859,2,131,249856,179375
2026-03-19T16:00:39.898,2,132,249856,179375
2026-03-19T16:00:39.938,2,133,249835,179390
2026-03-19T16:00:39.978,2,134,249835,179390
2026-03-19T16:00:40.018,2,135,249835,179390
2026-03-19T16:00:40.058,2,136,249835,179390
2026-03-19T16:00:40.098,2,137,249975,179501
2026-03-19T16:00:40.137,2,138,249975,179501
2026-03-19T16:00:40.177,2,139,249975,179501
2026-03-19T16:00:40.218,2,140,249975,179501
2026-03-19T16:00:40.257,2,141,250207,179644
2026-03-19T16:00:40.297,2,142,250207,179644
2026-03-19T16:00:40.336,2,143,250207,179644
2026-03-19T16:00:40.377,2,144,250207,179644
2026-03-19T16:00:40.417,2,145,250341,179658
2026-03-19T16:00:40.456,2,146,250341,179658
2026-03-19T16:00:40.496,2,147,250341,179658
2026-03-19T16:00:40.536,2,148,250341,179658
2026-03-19T16:00:40.576,2,149,250359,179530
2026-03-19T16:00:40.615,2,150,250359,179530
2026-03-19T16:00:40.656,2,151,250359,179530
2026-03-19T16:00:40.696,2,152,250359,179530
2026-03-19T16:00:40.735,2,153,250325,179441
2026-03-19T16:00:40.775,2,154,250325,179441
2026-03-19T16:00:40.815,2,155,250325,179441
2026-03-19T16:00:40.855,2,156,250325,179441
2026-03-19T16:00:40.894,2,157,250399,179444
2026-03-19T16:00:40.936,2,158,250399,179444
2026-03-19T16:00:40.975,2,159,250399,179444
2026-03-19T16:00:41.015,2,160,250399,179444
2026-03-19T16:00:41.054,2,161,250459,179486
2026-03-19T16:00:41.094,2,162,250459,179486
2026-03-19T16:00:41.135,2,163,250459,179486
2026-03-19T16:00:41.173,2,164,250459,179486
2026-03-19T16:00:41.214,2,165,250544,179510
2026-03-19T16:00:41.254,2,166,250544,179510
2026-03-19T16:00:41.294,2,167,250544,179510
2026-03-19T16:00:41.334,2,168,250544,179510
2026-03-19T16:00:41.373,2,169,250481,179505
2026-03-19T16:00:41.413,2,170,250481,179505
2026-03-19T16:00:41.452,2,171,250481,179505
2026-03-19T16:00:41.493,2,172,250481,179505
2026-03-19T16:00:41.532,2,173,250500,179556
2026-03-19T16:00:41.573,2,174,250500,179556
2026-03-19T16:00:41.613,2,175,250500,179556
2026-03-19T16:00:41.652,2,176,250500,179556
2026-03-19T16:00:41.692,2,177,250547,179600
2026-03-19T16:00:41.732,2,178,250547,179600
2026-03-19T16:00:41.772,2,179,250547,179600
2026-03-19T16:00:41.812,2,180,250547,179600
2026-03-19T16:00:41.851,2,181,250608,179646
2026-03-19T16:00:41.892,2,182,250608,179646
2026-03-19T16:00:41.931,2,183,250608,179646
2026-03-19T16:00:41.971,2,184,250608,179646
2026-03-19T16:00:42.011,2,185,250515,179598
2026-03-19T16:00:42.051,2,186,250515,179598
2026-03-19T16:00:42.090,2,187,250515,179598
2026-03-19T16:00:42.130,2,188,250515,179598
2026-03-19T16:00:42.170,2,189,250487,179631
2026-03-19T16:00:42.210,2,190,250487,179631
2026-03-19T16:00:42.250,2,191,250487,179631
2026-03-19T16:00:42.290,2,192,250487,179631
2026-03-19T16:00:42.330,2,193,250498,179688
2026-03-19T16:00:42.370,2,194,250498,179688
2026-03-19T16:00:42.410,2,195,250498,179688
2026-03-19T16:00:42.449,2,196,250498,179688
2026-03-19T16:00:42.489,2,197,250536,179707
2026-03-19T16:00:42.529,2,198,250536,179707
2026-03-19T16:00:42.569,2,199,250536,179707
2026-03-19T16:00:42.609,2,200,250536,179707
2026-03-19T16:00:42.649,2,201,250467,179629
2026-03-19T16:00:42.688,2,202,250467,179629
2026-03-19T16:00:42.729,2,203,250467,179629
2026-03-19T16:00:42.768,2,204,250467,179629
2026-03-19T16:00:42.808,2,205,250448,179624
2026-03-19T16:00:42.848,2,206,250448,179624
2026-03-19T16:00:42.888,2,207,250448,179624
2026-03-19T16:00:42.928,2,208,250448,179624
2026-03-19T16:00:42.968,2,209,250451,179592
2026-03-19T16:00:43.008,2,210,250451,179592
2026-03-19T16:00:43.048,2,211,250451,179592
2026-03-19T16:00:43.088,2,212,250451,179592
2026-03-19T16:00:43.128,2,213,250539,179604
2026-03-19T16:00:43.167,2,214,250539,179604
2026-03-19T16:00:43.207,2,215,250539,179604
2026-03-19T16:00:43.247,2,216,250539,179604
2026-03-19T16:00:43.287,2,217,250446,179530
2026-03-19T16:00:43.327,2,218,250446,179530
2026-03-19T16:00:43.367,2,219,250446,179530
2026-03-19T16:00:43.407,2,220,250446,179530
2026-03-19T16:00:43.446,2,221,250414,179508
2026-03-19T16:00:43.487,2,222,250414,179508
2026-03-19T16:00:43.526,2,223,250414,179508
2026-03-19T16:00:43.566,2,224,250414,179508
2026-03-19T16:00:43.606,2,225,250433,179500
2026-03-19T16:00:43.646,2,226,250433,179500
2026-03-19T16:00:43.685,2,227,250433,179500
2026-03-19T16:00:43.725,2,228,250433,179500
2026-03-19T16:00:43.765,2,229,250487,179506
2026-03-19T16:00:43.805,2,230,250487,179506
2026-03-19T16:00:43.845,2,231,250487,179506
2026-03-19T16:00:43.884,2,232,250487,179506
2026-03-19T16:00:43.924,2,233,250401,179413
2026-03-19T16:00:43.964,2,234,250401,179413
2026-03-19T16:00:44.004,2,235,250401,179413
2026-03-19T16:00:44.044,2,236,250401,179413
2026-03-19T16:00:44.084,2,237,250357,179381
2026-03-19T16:00:44.124,2,238,250357,179381
2026-03-19T16:00:44.164,2,239,250357,179381
2026-03-19T16:00:44.204,2,240,250357,179381
2026-03-19T16:00:44.244,2,241,250384,179372
2026-03-19T16:00:44.283,2,242,250384,179372
2026-03-19T16:00:44.323,2,243,250384,179372
2026-03-19T16:00:44.363,2,244,250384,179372
2026-03-19T16:00:44.403,2,245,250407,179344
2026-03-19T16:00:44.443,2,246,250407,179344
2026-03-19T16:00:44.483,2,247,250407,179344
2026-03-19T16:00:44.523,2,248,250407,179344
2026-03-19T16:00:44.563,2,249,250429,179356
2026-03-19T16:00:44.603,2,250,250429,179356
2026-03-19T16:00:44.642,2,251,250429,179356
2026-03-19T16:00:49.387,3,0,250644,179574
2026-03-19T16:00:49.427,3,1,250644,179574
2026-03-19T16:00:49.466,3,2,250644,179574
2026-03-19T16:00:49.507,3,3,250609,179577
2026-03-19T16:00:49.547,3,4,250609,179577
2026-03-19T16:00:49.586,3,5,250609,179577
2026-03-19T16:00:49.626,3,6,250609,179577
2026-03-19T16:00:49.666,3,7,250614,179584
2026-03-19T16:00:49.705,3,8,250614,179584
2026-03-19T16:00:49.746,3,9,250614,179584
2026-03-19T16:00:49.786,3,10,250614,179584
2026-03-19T16:00:49.826,3,11,250640,179583
2026-03-19T16:00:49.865,3,12,250640,179583
2026-03-19T16:00:49.905,3,13,250640,179583
2026-03-19T16:00:49.945,3,14,250640,179583
2026-03-19T16:00:49.984,3,15,250662,179534
2026-03-19T16:00:50.024,3,16,250662,179534
2026-03-19T16:00:50.064,3,17,250662,179534
2026-03-19T16:00:50.104,3,18,250662,179534
2026-03-19T16:00:50.144,3,19,250584,179461
2026-03-19T16:00:50.184,3,20,250584,179461
2026-03-19T16:00:50.224,3,21,250584,179461
2026-03-19T16:00:50.264,3,22,250584,179461
2026-03-19T16:00:50.304,3,23,250606,179437
2026-03-19T16:00:50.344,3,24,250606,179437
2026-03-19T16:00:50.384,3,25,250606,179437
2026-03-19T16:00:50.424,3,26,250606,179437
2026-03-19T16:00:50.463,3,27,250643,179390
2026-03-19T16:00:50.503,3,28,250643,179390
2026-03-19T16:00:50.543,3,29,250643,179390
2026-03-19T16:00:50.583,3,30,250643,179390
2026-03-19T16:00:50.624,3,31,250716,179369
2026-03-19T16:00:50.663,3,32,250716,179369
2026-03-19T16:00:50.703,3,33,250716,179369
2026-03-19T16:00:50.742,3,34,250716,179369
2026-03-19T16:00:50.782,3,35,250626,179277
2026-03-19T16:00:50.822,3,36,250626,179277
2026-03-19T16:00:50.862,3,37,250626,179277
2026-03-19T16:00:50.901,3,38,250626,179277
2026-03-19T16:00:50.942,3,39,250598,179249
2026-03-19T16:00:50.981,3,40,250598,179249
2026-03-19T16:00:51.022,3,41,250598,179249
2026-03-19T16:00:51.061,3,42,250598,179249
2026-03-19T16:00:51.101,3,43,250649,179226
2026-03-19T16:00:51.141,3,44,250649,179226
2026-03-19T16:00:51.181,3,45,250649,179226
2026-03-19T16:00:51.221,3,46,250649,179226
2026-03-19T16:00:51.261,3,47,250694,179217
2026-03-19T16:00:51.300,3,48,250694,179217
2026-03-19T16:00:51.340,3,49,250694,179217
2026-03-19T16:00:51.380,3,50,250694,179217
2026-03-19T16:00:51.420,3,51,250756,179215
2026-03-19T16:00:51.459,3,52,250756,179215
2026-03-19T16:00:51.499,3,53,250756,179215
2026-03-19T16:00:51.539,3,54,250756,179215
2026-03-19T16:00:51.579,3,55,250632,179148
2026-03-19T16:00:51.619,3,56,250632,179148
2026-03-19T16:00:51.660,3,57,250632,179148
2026-03-19T16:00:51.699,3,58,250632,179148
2026-03-19T16:00:51.739,3,59,250616,179143
2026-03-19T16:00:51.779,3,60,250616,179143
2026-03-19T16:00:51.818,3,61,250616,179143
2026-03-19T16:00:51.858,3,62,250616,179143
2026-03-19T16:00:51.898,3,63,250634,179135
2026-03-19T16:00:51.938,3,64,250634,179135
2026-03-19T16:00:51.979,3,65,250634,179135
2026-03-19T16:00:52.018,3,66,250634,179135
2026-03-19T16:00:52.058,3,67,250673,179143
2026-03-19T16:00:52.098,3,68,250673,179143
2026-03-19T16:00:52.137,3,69,250673,179143
2026-03-19T16:00:52.177,3,70,250673,179143
2026-03-19T16:00:52.217,3,71,250752,179169
2026-03-19T16:00:52.257,3,72,250752,179169
2026-03-19T16:00:52.297,3,73,250752,179169
2026-03-19T16:00:52.337,3,74,250752,179169
2026-03-19T16:00:52.377,3,75,250673,179096
2026-03-19T16:00:52.417,3,76,250673,179096
2026-03-19T16:00:52.457,3,77,250673,179096
2026-03-19T16:00:52.496,3,78,250673,179096
2026-03-19T16:00:52.536,3,79,250645,179084
2026-03-19T16:00:52.576,3,80,250645,179084
2026-03-19T16:00:52.616,3,81,250645,179084
2026-03-19T16:00:52.656,3,82,250645,179084
2026-03-19T16:00:52.696,3,83,250668,179094
2026-03-19T16:00:52.735,3,84,250668,179094
2026-03-19T16:00:52.775,3,85,250668,179094
2026-03-19T16:00:52.816,3,86,250668,179094
2026-03-19T16:00:52.855,3,87,250729,179123
2026-03-19T16:00:52.895,3,88,250729,179123
2026-03-19T16:00:52.935,3,89,250729,179123
2026-03-19T16:00:52.975,3,90,250729,179123
2026-03-19T16:00:53.014,3,91,250771,179135
2026-03-19T16:00:53.055,3,92,250771,179135
2026-03-19T16:00:53.094,3,93,250771,179135
2026-03-19T16:00:53.134,3,94,250771,179135
2026-03-19T16:00:53.174,3,95,250789,179102
2026-03-19T16:00:53.214,3,96,250789,179102
2026-03-19T16:00:53.254,3,97,250789,179102
2026-03-19T16:00:53.293,3,98,250789,179102
2026-03-19T16:00:53.333,3,99,250739,179057
2026-03-19T16:00:53.373,3,100,250739,179057
2026-03-19T16:00:53.414,3,101,250739,179057
2026-03-19T16:00:53.453,3,102,250739,179057
2026-03-19T16:00:53.493,3,103,250736,179066
2026-03-19T16:00:53.533,3,104,250736,179066
2026-03-19T16:00:53.573,3,105,250736,179066
2026-03-19T16:00:53.612,3,106,250736,179066
2026-03-19T16:00:53.652,3,107,250765,179091
2026-03-19T16:00:53.692,3,108,250765,179091
2026-03-19T16:00:53.732,3,109,250765,179091
2026-03-19T16:00:53.772,3,110,250765,179091
2026-03-19T16:00:53.812,3,111,250814,179119
2026-03-19T16:00:53.852,3,112,250814,179119
2026-03-19T16:00:53.891,3,113,250814,179119
2026-03-19T16:00:53.931,3,114,250814,179119
2026-03-19T16:00:53.971,3,115,250846,179172
2026-03-19T16:00:54.011,3,116,250846,179172
2026-03-19T16:00:54.051,3,117,250846,179172
2026-03-19T16:00:54.091,3,118,250846,179172
2026-03-19T16:00:54.131,3,119,250714,179156
2026-03-19T16:00:54.170,3,120,250714,179156
2026-03-19T16:00:54.210,3,121,250714,179156
2026-03-19T16:00:54.250,3,122,250714,179156
2026-03-19T16:00:54.291,3,123,250655,179213
2026-03-19T16:00:54.330,3,124,250655,179213
2026-03-19T16:00:54.370,3,125,250655,179213
2026-03-19T16:00:54.410,3,126,250655,179213
2026-03-19T16:00:54.449,3,127,250667,179300
2026-03-19T16:00:54.490,3,128,250667,179300
2026-03-19T16:00:54.529,3,129,250667,179300
2026-03-19T16:00:54.569,3,130,250667,179300
2026-03-19T16:00:54.612,3,131,250729,179396
2026-03-19T16:00:54.649,3,132,250729,179396
2026-03-19T16:00:54.689,3,133,250729,179396
2026-03-19T16:00:54.728,3,134,250729,179396
2026-03-19T16:00:54.768,3,135,250828,179488
2026-03-19T16:00:54.808,3,136,250828,179488
2026-03-19T16:00:54.848,3,137,250828,179488
2026-03-19T16:00:54.889,3,138,250828,179488
2026-03-19T16:00:54.928,3,139,250788,179511
2026-03-19T16:00:54.968,3,140,250788,179511
2026-03-19T16:00:55.008,3,141,250788,179511
2026-03-19T16:00:55.048,3,142,250788,179511
2026-03-19T16:00:55.087,3,143,250836,179582
2026-03-19T16:00:55.127,3,144,250836,179582
2026-03-19T16:00:55.167,3,145,250836,179582
2026-03-19T16:00:55.207,3,146,250836,179582
2026-03-19T16:00:55.247,3,147,250860,179648
2026-03-19T16:00:55.287,3,148,250860,179648
2026-03-19T16:00:55.327,3,149,250860,179648
2026-03-19T16:00:55.367,3,150,250860,179648
2026-03-19T16:00:55.406,3,151,250905,179718
2026-03-19T16:00:55.446,3,152,250905,179718
2026-03-19T16:00:55.486,3,153,250905,179718
2026-03-19T16:00:55.526,3,154,250905,179718
2026-03-19T16:00:55.565,3,155,250926,179745
2026-03-19T16:00:55.605,3,156,250926,179745
2026-03-19T16:00:55.645,3,157,250926,179745
2026-03-19T16:00:55.686,3,158,250926,179745
2026-03-19T16:00:55.725,3,159,250847,179746
2026-03-19T16:00:55.765,3,160,250847,179746
2026-03-19T16:00:55.805,3,161,250847,179746
2026-03-19T16:00:55.845,3,162,250847,179746
2026-03-19T16:00:55.885,3,163,250867,179771
2026-03-19T16:00:55.929,3,164,250867,179771
2026-03-19T16:00:55.965,3,165,250867,179771
2026-03-19T16:00:56.004,3,166,250867,179771
2026-03-19T16:00:56.044,3,167,250889,179785
2026-03-19T16:00:56.085,3,168,250889,179785
2026-03-19T16:00:56.124,3,169,250889,179785
2026-03-19T16:00:56.164,3,170,250889,179785
2026-03-19T16:00:56.204,3,171,250958,179799
2026-03-19T16:00:56.244,3,172,250958,179799
2026-03-19T16:00:56.284,3,173,250958,179799
2026-03-19T16:00:56.323,3,174,250958,179799
2026-03-19T16:00:56.363,3,175,250884,179730
2026-03-19T16:00:56.403,3,176,250884,179730
2026-03-19T16:00:56.443,3,177,250884,179730
2026-03-19T16:00:56.483,3,178,250884,179730
2026-03-19T16:00:56.523,3,179,250884,179719
2026-03-19T16:00:56.562,3,180,250884,179719
2026-03-19T16:00:56.602,3,181,250884,179719
2026-03-19T16:00:56.642,3,182,250884,179719
2026-03-19T16:00:56.682,3,183,250884,179720
2026-03-19T16:00:56.722,3,184,250884,179720
2026-03-19T16:00:56.762,3,185,250884,179720
2026-03-19T16:00:56.802,3,186,250884,179720
2026-03-19T16:00:56.841,3,187,250928,179736
2026-03-19T16:00:56.881,3,188,250928,179736
2026-03-19T16:00:56.922,3,189,250928,179736
2026-03-19T16:00:56.961,3,190,250928,179736
2026-03-19T16:00:57.001,3,191,250927,179698
2026-03-19T16:00:57.041,3,192,250927,179698
2026-03-19T16:00:57.081,3,193,250927,179698
2026-03-19T16:00:57.121,3,194,250927,179698
2026-03-19T16:00:57.160,3,195,250843,179652
2026-03-19T16:00:57.200,3,196,250843,179652
2026-03-19T16:00:57.240,3,197,250843,179652
2026-03-19T16:00:57.280,3,198,250843,179652
2026-03-19T16:00:57.320,3,199,250858,179653
2026-03-19T16:00:57.359,3,200,250858,179653
2026-03-19T16:00:57.399,3,201,250858,179653
2026-03-19T16:00:57.439,3,202,250858,179653
2026-03-19T16:00:57.479,3,203,250879,179665
2026-03-19T16:00:57.519,3,204,250879,179665
2026-03-19T16:00:57.559,3,205,250879,179665
2026-03-19T16:00:57.598,3,206,250879,179665
2026-03-19T16:00:57.638,3,207,250967,179648
2026-03-19T16:00:57.678,3,208,250967,179648
2026-03-19T16:00:57.719,3,209,250967,179648
2026-03-19T16:00:57.758,3,210,250967,179648
2026-03-19T16:00:57.798,3,211,250866,179551
2026-03-19T16:00:57.838,3,212,250866,179551
2026-03-19T16:00:57.878,3,213,250866,179551
2026-03-19T16:00:57.918,3,214,250866,179551
2026-03-19T16:00:57.957,3,215,250849,179528
2026-03-19T16:00:57.997,3,216,250849,179528
2026-03-19T16:00:58.038,3,217,250849,179528
2026-03-19T16:00:58.077,3,218,250849,179528
2026-03-19T16:00:58.118,3,219,250868,179495
2026-03-19T16:00:58.157,3,220,250868,179495
2026-03-19T16:00:58.196,3,221,250868,179495
2026-03-19T16:00:58.236,3,222,250868,179495
2026-03-19T16:00:58.276,3,223,250918,179490
2026-03-19T16:00:58.316,3,224,250918,179490
2026-03-19T16:00:58.356,3,225,250918,179490
2026-03-19T16:00:58.396,3,226,250918,179490
2026-03-19T16:00:58.436,3,227,250947,179454
2026-03-19T16:00:58.476,3,228,250947,179454
2026-03-19T16:00:58.516,3,229,250947,179454
2026-03-19T16:00:58.556,3,230,250947,179454
2026-03-19T16:00:58.595,3,231,250850,179362
2026-03-19T16:00:58.636,3,232,250850,179362
2026-03-19T16:00:58.676,3,233,250850,179362
2026-03-19T16:00:58.715,3,234,250850,179362
2026-03-19T16:00:58.755,3,235,250856,179356
2026-03-19T16:00:58.795,3,236,250856,179356
2026-03-19T16:00:58.835,3,237,250856,179356
2026-03-19T16:00:58.875,3,238,250856,179356
2026-03-19T16:00:58.915,3,239,250889,179356
2026-03-19T16:00:58.954,3,240,250889,179356
2026-03-19T16:00:58.994,3,241,250889,179356
2026-03-19T16:00:59.034,3,242,250889,179356
2026-03-19T16:00:59.074,3,243,250938,179355
2026-03-19T16:00:59.113,3,244,250938,179355
2026-03-19T16:00:59.154,3,245,250938,179355
2026-03-19T16:00:59.194,3,246,250938,179355
2026-03-19T16:00:59.234,3,247,250992,179333
2026-03-19T16:00:59.279,3,248,250992,179333
2026-03-19T16:00:59.313,3,249,250992,179333
2026-03-19T16:00:59.361,3,250,250992,179333
2026-03-19T16:00:59.393,3,251,250897,179254
2026-03-19T16:01:03.100,4,0,251054,179225
2026-03-19T16:01:03.141,4,1,251054,179225
2026-03-19T16:01:03.180,4,2,251054,179225
2026-03-19T16:01:03.220,4,3,251052,179233
2026-03-19T16:01:03.260,4,4,251052,179233
2026-03-19T16:01:03.300,4,5,251052,179233
2026-03-19T16:01:03.339,4,6,251052,179233
2026-03-19T16:01:03.379,4,7,251100,179313
2026-03-19T16:01:03.419,4,8,251100,179313
2026-03-19T16:01:03.459,4,9,251100,179313
2026-03-19T16:01:03.499,4,10,251100,179313
2026-03-19T16:01:03.539,4,11,251013,179321
2026-03-19T16:01:03.579,4,12,251013,179321
2026-03-19T16:01:03.619,4,13,251013,179321
2026-03-19T16:01:03.659,4,14,251013,179321
2026-03-19T16:01:03.699,4,15,250992,179415
2026-03-19T16:01:03.739,4,16,250992,179415
2026-03-19T16:01:03.778,4,17,250992,179415
2026-03-19T16:01:03.818,4,18,250992,179415
2026-03-19T16:01:03.857,4,19,251009,179481
2026-03-19T16:01:03.898,4,20,251009,179481
2026-03-19T16:01:03.938,4,21,251009,179481
2026-03-19T16:01:03.977,4,22,251009,179481
2026-03-19T16:01:04.017,4,23,251082,179585
2026-03-19T16:01:04.057,4,24,251082,179585
2026-03-19T16:01:04.097,4,25,251082,179585
2026-03-19T16:01:04.136,4,26,251082,179585
2026-03-19T16:01:04.177,4,27,251104,179646
2026-03-19T16:01:04.217,4,28,251104,179646
2026-03-19T16:01:04.256,4,29,251104,179646
2026-03-19T16:01:04.296,4,30,251104,179646
2026-03-19T16:01:04.337,4,31,251034,179711
2026-03-19T16:01:04.376,4,32,251034,179711
2026-03-19T16:01:04.415,4,33,251034,179711
2026-03-19T16:01:04.456,4,34,251034,179711
2026-03-19T16:01:04.495,4,35,251071,179773
2026-03-19T16:01:04.535,4,36,251071,179773
2026-03-19T16:01:04.575,4,37,251071,179773
2026-03-19T16:01:04.616,4,38,251071,179773
2026-03-19T16:01:04.655,4,39,251093,179825
2026-03-19T16:01:04.695,4,40,251093,179825
2026-03-19T16:01:04.735,4,41,251093,179825
2026-03-19T16:01:04.774,4,42,251093,179825
2026-03-19T16:01:04.814,4,43,251166,179863
2026-03-19T16:01:04.855,4,44,251166,179863
2026-03-19T16:01:04.894,4,45,251166,179863
2026-03-19T16:01:04.935,4,46,251166,179863
2026-03-19T16:01:04.974,4,47,251073,179830
2026-03-19T16:01:05.014,4,48,251073,179830
2026-03-19T16:01:05.054,4,49,251073,179830
2026-03-19T16:01:05.094,4,50,251073,179830
2026-03-19T16:01:05.133,4,51,251078,179861
2026-03-19T16:01:05.173,4,52,251078,179861
2026-03-19T16:01:05.213,4,53,251078,179861
2026-03-19T16:01:05.252,4,54,251078,179861
2026-03-19T16:01:05.292,4,55,251074,179905
2026-03-19T16:01:05.332,4,56,251074,179905
2026-03-19T16:01:05.372,4,57,251074,179905
2026-03-19T16:01:05.412,4,58,251074,179905
2026-03-19T16:01:05.453,4,59,251150,179917
2026-03-19T16:01:05.492,4,60,251150,179917
2026-03-19T16:01:05.532,4,61,251150,179917
2026-03-19T16:01:05.572,4,62,251150,179917
2026-03-19T16:01:05.612,4,63,251060,179853
2026-03-19T16:01:05.652,4,64,251060,179853
2026-03-19T16:01:05.692,4,65,251060,179853
2026-03-19T16:01:05.732,4,66,251060,179853
2026-03-19T16:01:05.771,4,67,251036,179818
2026-03-19T16:01:05.811,4,68,251036,179818
2026-03-19T16:01:05.851,4,69,251036,179818
2026-03-19T16:01:05.891,4,70,251036,179818
2026-03-19T16:01:05.930,4,71,251061,179778
2026-03-19T16:01:05.970,4,72,251061,179778
2026-03-19T16:01:06.010,4,73,251061,179778
2026-03-19T16:01:06.050,4,74,251061,179778
2026-03-19T16:01:06.090,4,75,251127,179805
2026-03-19T16:01:06.130,4,76,251127,179805
2026-03-19T16:01:06.170,4,77,251127,179805
2026-03-19T16:01:06.210,4,78,251127,179805
2026-03-19T16:01:06.250,4,79,251052,179673
2026-03-19T16:01:06.289,4,80,251052,179673
2026-03-19T16:01:06.329,4,81,251052,179673
2026-03-19T16:01:06.369,4,82,251052,179673
2026-03-19T16:01:06.409,4,83,251005,179624
2026-03-19T16:01:06.449,4,84,251005,179624
2026-03-19T16:01:06.488,4,85,251005,179624
2026-03-19T16:01:06.528,4,86,251005,179624
2026-03-19T16:01:06.568,4,87,251034,179612
2026-03-19T16:01:06.608,4,88,251034,179612
2026-03-19T16:01:06.648,4,89,251034,179612
2026-03-19T16:01:06.688,4,90,251034,179612
2026-03-19T16:01:06.727,4,91,251084,179562
2026-03-19T16:01:06.767,4,92,251084,179562
2026-03-19T16:01:06.807,4,93,251084,179562
2026-03-19T16:01:06.847,4,94,251084,179562
2026-03-19T16:01:06.887,4,95,251118,179509
2026-03-19T16:01:06.927,4,96,251118,179509
2026-03-19T16:01:06.966,4,97,251118,179509
2026-03-19T16:01:07.006,4,98,251118,179509
2026-03-19T16:01:07.046,4,99,251008,179422
2026-03-19T16:01:07.087,4,100,251008,179422
2026-03-19T16:01:07.126,4,101,251008,179422
2026-03-19T16:01:07.166,4,102,251008,179422
2026-03-19T16:01:07.206,4,103,251034,179383
2026-03-19T16:01:07.247,4,104,251034,179383
2026-03-19T16:01:07.286,4,105,251034,179383
2026-03-19T16:01:07.326,4,106,251034,179383
2026-03-19T16:01:07.366,4,107,251081,179377
2026-03-19T16:01:07.406,4,108,251081,179377
2026-03-19T16:01:07.445,4,109,251081,179377
2026-03-19T16:01:07.485,4,110,251081,179377
2026-03-19T16:01:07.525,4,111,251134,179404
2026-03-19T16:01:07.565,4,112,251134,179404
2026-03-19T16:01:07.605,4,113,251134,179404
2026-03-19T16:01:07.645,4,114,251134,179404
2026-03-19T16:01:07.684,4,115,251094,179348
2026-03-19T16:01:07.724,4,116,251094,179348
2026-03-19T16:01:07.764,4,117,251094,179348
2026-03-19T16:01:07.804,4,118,251094,179348
2026-03-19T16:01:07.844,4,119,251028,179300
2026-03-19T16:01:07.883,4,120,251028,179300
2026-03-19T16:01:07.923,4,121,251028,179300
2026-03-19T16:01:07.963,4,122,251028,179300
2026-03-19T16:01:08.003,4,123,251022,179303
2026-03-19T16:01:08.043,4,124,251022,179303
2026-03-19T16:01:08.083,4,125,251022,179303
2026-03-19T16:01:08.123,4,126,251022,179303
2026-03-19T16:01:08.163,4,127,251045,179312
2026-03-19T16:01:08.203,4,128,251045,179312
2026-03-19T16:01:08.243,4,129,251045,179312
2026-03-19T16:01:08.282,4,130,251045,179312
2026-03-19T16:01:08.322,4,131,251080,179328
2026-03-19T16:01:08.362,4,132,251080,179328
2026-03-19T16:01:08.402,4,133,251080,179328
2026-03-19T16:01:08.442,4,134,251080,179328
2026-03-19T16:01:08.481,4,135,251121,179325
2026-03-19T16:01:08.522,4,136,251121,179325
2026-03-19T16:01:08.561,4,137,251121,179325
2026-03-19T16:01:08.602,4,138,251121,179325
2026-03-19T16:01:08.642,4,139,251032,179257
2026-03-19T16:01:08.681,4,140,251032,179257
2026-03-19T16:01:08.721,4,141,251032,179257
2026-03-19T16:01:08.761,4,142,251032,179257
2026-03-19T16:01:08.801,4,143,251060,179279
2026-03-19T16:01:08.841,4,144,251060,179279
2026-03-19T16:01:08.880,4,145,251060,179279
2026-03-19T16:01:08.921,4,146,251060,179279
2026-03-19T16:01:08.960,4,147,251075,179276
2026-03-19T16:01:09.000,4,148,251075,179276
2026-03-19T16:01:09.039,4,149,251075,179276
2026-03-19T16:01:09.079,4,150,251075,179276
2026-03-19T16:01:09.119,4,151,251136,179315
2026-03-19T16:01:09.159,4,152,251136,179315
2026-03-19T16:01:09.200,4,153,251136,179315
2026-03-19T16:01:09.239,4,154,251136,179315
2026-03-19T16:01:09.279,4,155,251199,179349
2026-03-19T16:01:09.319,4,156,251199,179349
2026-03-19T16:01:09.358,4,157,251199,179349
2026-03-19T16:01:09.399,4,158,251199,179349
2026-03-19T16:01:09.438,4,159,251133,179264
2026-03-19T16:01:09.479,4,160,251133,179264
2026-03-19T16:01:09.519,4,161,251133,179264
2026-03-19T16:01:09.558,4,162,251133,179264
2026-03-19T16:01:09.598,4,163,251128,179256
2026-03-19T16:01:09.638,4,164,251128,179256
2026-03-19T16:01:09.677,4,165,251128,179256
2026-03-19T16:01:09.717,4,166,251128,179256
2026-03-19T16:01:09.757,4,167,251130,179280
2026-03-19T16:01:09.797,4,168,251130,179280
2026-03-19T16:01:09.837,4,169,251130,179280
2026-03-19T16:01:09.877,4,170,251130,179280
2026-03-19T16:01:09.917,4,171,251186,179291
2026-03-19T16:01:09.957,4,172,251186,179291
2026-03-19T16:01:09.997,4,173,251186,179291
2026-03-19T16:01:10.037,4,174,251186,179291
2026-03-19T16:01:10.076,4,175,251238,179329
2026-03-19T16:01:10.117,4,176,251238,179329
2026-03-19T16:01:10.156,4,177,251238,179329
2026-03-19T16:01:10.196,4,178,251238,179329
2026-03-19T16:01:10.236,4,179,251269,179319
2026-03-19T16:01:10.276,4,180,251269,179319
2026-03-19T16:01:10.316,4,181,251269,179319
2026-03-19T16:01:10.355,4,182,251269,179319
2026-03-19T16:01:10.396,4,183,251213,179272
2026-03-19T16:01:10.435,4,184,251213,179272
2026-03-19T16:01:10.476,4,185,251213,179272
2026-03-19T16:01:10.516,4,186,251213,179272
2026-03-19T16:01:10.555,4,187,251206,179280
2026-03-19T16:01:10.595,4,188,251206,179280
2026-03-19T16:01:10.634,4,189,251206,179280
2026-03-19T16:01:10.675,4,190,251206,179280
2026-03-19T16:01:10.714,4,191,251263,179309
2026-03-19T16:01:10.754,4,192,251263,179309
2026-03-19T16:01:10.794,4,193,251263,179309
2026-03-19T16:01:10.834,4,194,251263,179309
2026-03-19T16:01:10.874,4,195,251293,179323
2026-03-19T16:01:10.914,4,196,251293,179323
2026-03-19T16:01:10.953,4,197,251293,179323
2026-03-19T16:01:10.994,4,198,251293,179323
2026-03-19T16:01:11.033,4,199,251299,179408
2026-03-19T16:01:11.073,4,200,251299,179408
2026-03-19T16:01:11.113,4,201,251299,179408
2026-03-19T16:01:11.153,4,202,251299,179408
2026-03-19T16:01:11.193,4,203,251172,179408
2026-03-19T16:01:11.233,4,204,251172,179408
2026-03-19T16:01:11.272,4,205,251172,179408
2026-03-19T16:01:11.312,4,206,251172,179408
2026-03-19T16:01:11.351,4,207,251134,179521
2026-03-19T16:01:11.391,4,208,251134,179521
2026-03-19T16:01:11.432,4,209,251134,179521
2026-03-19T16:01:11.471,4,210,251134,179521
2026-03-19T16:01:11.511,4,211,251141,179615
2026-03-19T16:01:11.551,4,212,251141,179615
2026-03-19T16:01:11.591,4,213,251141,179615
2026-03-19T16:01:11.631,4,214,251141,179615
2026-03-19T16:01:11.671,4,215,251180,179745
2026-03-19T16:01:11.711,4,216,251180,179745
2026-03-19T16:01:11.751,4,217,251180,179745
2026-03-19T16:01:11.791,4,218,251180,179745
2026-03-19T16:01:11.831,4,219,251301,179849
2026-03-19T16:01:11.870,4,220,251301,179849
2026-03-19T16:01:11.910,4,221,251301,179849
2026-03-19T16:01:11.950,4,222,251301,179849
2026-03-19T16:01:11.989,4,223,251267,179916
2026-03-19T16:01:12.029,4,224,251267,179916
2026-03-19T16:01:12.070,4,225,251267,179916
2026-03-19T16:01:12.110,4,226,251267,179916
2026-03-19T16:01:12.149,4,227,251271,180005
2026-03-19T16:01:12.189,4,228,251271,180005
2026-03-19T16:01:12.229,4,229,251271,180005
2026-03-19T16:01:12.268,4,230,251271,180005
2026-03-19T16:01:12.308,4,231,251320,180096
2026-03-19T16:01:12.348,4,232,251320,180096
2026-03-19T16:01:12.388,4,233,251320,180096
2026-03-19T16:01:12.428,4,234,251320,180096
2026-03-19T16:01:12.468,4,235,251358,180196
2026-03-19T16:01:12.508,4,236,251358,180196
2026-03-19T16:01:12.548,4,237,251358,180196
2026-03-19T16:01:12.588,4,238,251358,180196
2026-03-19T16:01:12.627,4,239,251358,180199
2026-03-19T16:01:12.667,4,240,251358,180199
2026-03-19T16:01:12.707,4,241,251358,180199
2026-03-19T16:01:12.747,4,242,251358,180199
2026-03-19T16:01:12.787,4,243,251315,180236
2026-03-19T16:01:12.827,4,244,251315,180236
2026-03-19T16:01:12.867,4,245,251315,180236
2026-03-19T16:01:12.906,4,246,251315,180236
2026-03-19T16:01:12.946,4,247,251310,180276
2026-03-19T16:01:12.986,4,248,251310,180276
2026-03-19T16:01:13.026,4,249,251310,180276
2026-03-19T16:01:13.066,4,250,251310,180276
2026-03-19T16:01:13.106,4,251,251315,180300
2026-03-19T16:01:18.926,5,0,251458,179401
2026-03-19T16:01:18.966,5,1,251458,179401
2026-03-19T16:01:19.006,5,2,251377,179309
2026-03-19T16:01:19.046,5,3,251377,179309
2026-03-19T16:01:19.086,5,4,251377,179309
2026-03-19T16:01:19.126,5,5,251377,179309
2026-03-19T16:01:19.166,5,6,251369,179324
2026-03-19T16:01:19.206,5,7,251369,179324
2026-03-19T16:01:19.245,5,8,251369,179324
2026-03-19T16:01:19.285,5,9,251369,179324
2026-03-19T16:01:19.325,5,10,251389,179337
2026-03-19T16:01:19.365,5,11,251389,179337
2026-03-19T16:01:19.404,5,12,251389,179337
2026-03-19T16:01:19.445,5,13,251389,179337
2026-03-19T16:01:19.485,5,14,251421,179345
2026-03-19T16:01:19.525,5,15,251421,179345
2026-03-19T16:01:19.565,5,16,251421,179345
2026-03-19T16:01:19.603,5,17,251421,179345
2026-03-19T16:01:19.644,5,18,251429,179400
2026-03-19T16:01:19.684,5,19,251429,179400
2026-03-19T16:01:19.723,5,20,251429,179400
2026-03-19T16:01:19.763,5,21,251429,179400
2026-03-19T16:01:19.803,5,22,251330,179396
2026-03-19T16:01:19.843,5,23,251330,179396
2026-03-19T16:01:19.883,5,24,251330,179396
2026-03-19T16:01:19.923,5,25,251330,179396
2026-03-19T16:01:19.963,5,26,251271,179473
2026-03-19T16:01:20.003,5,27,251271,179473
2026-03-19T16:01:20.043,5,28,251271,179473
2026-03-19T16:01:20.082,5,29,251271,179473
2026-03-19T16:01:20.122,5,30,251256,179563
2026-03-19T16:01:20.162,5,31,251256,179563
2026-03-19T16:01:20.202,5,32,251256,179563
2026-03-19T16:01:20.242,5,33,251256,179563
2026-03-19T16:01:20.282,5,34,251284,179642
2026-03-19T16:01:20.321,5,35,251284,179642
2026-03-19T16:01:20.361,5,36,251284,179642
2026-03-19T16:01:20.401,5,37,251284,179642
2026-03-19T16:01:20.441,5,38,251345,179771
2026-03-19T16:01:20.481,5,39,251345,179771
2026-03-19T16:01:20.520,5,40,251345,179771
2026-03-19T16:01:20.561,5,41,251345,179771
2026-03-19T16:01:20.601,5,42,251348,179781
2026-03-19T16:01:20.640,5,43,251348,179781
2026-03-19T16:01:20.680,5,44,251348,179781
2026-03-19T16:01:20.720,5,45,251348,179781
2026-03-19T16:01:20.760,5,46,251328,179847
2026-03-19T16:01:20.800,5,47,251328,179847
2026-03-19T16:01:20.839,5,48,251328,179847
2026-03-19T16:01:20.879,5,49,251328,179847
2026-03-19T16:01:20.919,5,50,251361,179909
2026-03-19T16:01:20.959,5,51,251361,179909
2026-03-19T16:01:20.999,5,52,251361,179909
2026-03-19T16:01:21.039,5,53,251361,179909
2026-03-19T16:01:21.078,5,54,251378,179947
2026-03-19T16:01:21.118,5,55,251378,179947
2026-03-19T16:01:21.159,5,56,251378,179947
2026-03-19T16:01:21.198,5,57,251378,179947
2026-03-19T16:01:21.238,5,58,251427,179970
2026-03-19T16:01:21.278,5,59,251427,179970
2026-03-19T16:01:21.318,5,60,251427,179970
2026-03-19T16:01:21.358,5,61,251427,179970
2026-03-19T16:01:21.397,5,62,251340,179921
2026-03-19T16:01:21.437,5,63,251340,179921
2026-03-19T16:01:21.478,5,64,251340,179921
2026-03-19T16:01:21.518,5,65,251340,179921
2026-03-19T16:01:21.557,5,66,251361,179952
2026-03-19T16:01:21.597,5,67,251361,179952
2026-03-19T16:01:21.638,5,68,251361,179952
2026-03-19T16:01:21.677,5,69,251361,179952
2026-03-19T16:01:21.716,5,70,251360,179954
2026-03-19T16:01:21.757,5,71,251360,179954
2026-03-19T16:01:21.797,5,72,251360,179954
2026-03-19T16:01:21.836,5,73,251360,179954
2026-03-19T16:01:21.877,5,74,251394,179964
2026-03-19T16:01:21.916,5,75,251394,179964
2026-03-19T16:01:21.956,5,76,251394,179964
2026-03-19T16:01:21.996,5,77,251394,179964
2026-03-19T16:01:22.035,5,78,251350,179863
2026-03-19T16:01:22.076,5,79,251350,179863
2026-03-19T16:01:22.115,5,80,251350,179863
2026-03-19T16:01:22.155,5,81,251350,179863
2026-03-19T16:01:22.195,5,82,251318,179848
2026-03-19T16:01:22.235,5,83,251318,179848
2026-03-19T16:01:22.275,5,84,251318,179848
2026-03-19T16:01:22.314,5,85,251318,179848
2026-03-19T16:01:22.355,5,86,251305,179804
2026-03-19T16:01:22.395,5,87,251305,179804
2026-03-19T16:01:22.434,5,88,251305,179804
2026-03-19T16:01:22.474,5,89,251305,179804
2026-03-19T16:01:22.514,5,90,251366,179778
2026-03-19T16:01:22.554,5,91,251366,179778
2026-03-19T16:01:22.594,5,92,251366,179778
2026-03-19T16:01:22.634,5,93,251366,179778
2026-03-19T16:01:22.673,5,94,251370,179711
2026-03-19T16:01:22.714,5,95,251370,179711
2026-03-19T16:01:22.753,5,96,251370,179711
2026-03-19T16:01:22.793,5,97,251370,179711
2026-03-19T16:01:22.833,5,98,251283,179619
2026-03-19T16:01:22.872,5,99,251283,179619
2026-03-19T16:01:22.912,5,100,251283,179619
2026-03-19T16:01:22.952,5,101,251283,179619
2026-03-19T16:01:22.992,5,102,251273,179588
2026-03-19T16:01:23.032,5,103,251273,179588
2026-03-19T16:01:23.072,5,104,251273,179588
2026-03-19T16:01:23.112,5,105,251273,179588
2026-03-19T16:01:23.152,5,106,251314,179564
2026-03-19T16:01:23.192,5,107,251314,179564
2026-03-19T16:01:23.232,5,108,251314,179564
2026-03-19T16:01:23.271,5,109,251314,179564
2026-03-19T16:01:23.311,5,110,251348,179563
2026-03-19T16:01:23.351,5,111,251348,179563
2026-03-19T16:01:23.391,5,112,251348,179563
2026-03-19T16:01:23.431,5,113,251348,179563
2026-03-19T16:01:23.471,5,114,251306,179447
2026-03-19T16:01:23.510,5,115,251306,179447
2026-03-19T16:01:23.551,5,116,251306,179447
2026-03-19T16:01:23.590,5,117,251306,179447
2026-03-19T16:01:23.631,5,118,251149,179383
2026-03-19T16:01:23.670,5,119,251149,179383
2026-03-19T16:01:23.710,5,120,251149,179383
2026-03-19T16:01:23.749,5,121,251149,179383
2026-03-19T16:01:23.790,5,122,251093,179366
2026-03-19T16:01:23.829,5,123,251093,179366
2026-03-19T16:01:23.869,5,124,251093,179366
2026-03-19T16:01:23.910,5,125,251093,179366
2026-03-19T16:01:23.949,5,126,251050,179407
2026-03-19T16:01:23.988,5,127,251050,179407
2026-03-19T16:01:24.029,5,128,251050,179407
2026-03-19T16:01:24.069,5,129,251050,179407
2026-03-19T16:01:24.109,5,130,251101,179441
2026-03-19T16:01:24.148,5,131,251101,179441
2026-03-19T16:01:24.188,5,132,251101,179441
2026-03-19T16:01:24.228,5,133,251101,179441
2026-03-19T16:01:24.268,5,134,251018,179360
2026-03-19T16:01:24.308,5,135,251018,179360
2026-03-19T16:01:24.347,5,136,251018,179360
2026-03-19T16:01:24.388,5,137,251018,179360
2026-03-19T16:01:24.427,5,138,250988,179367
2026-03-19T16:01:24.467,5,139,250988,179367
2026-03-19T16:01:24.507,5,140,250988,179367
2026-03-19T16:01:24.547,5,141,250988,179367
2026-03-19T16:01:24.587,5,142,251011,179371
2026-03-19T16:01:24.627,5,143,251011,179371
2026-03-19T16:01:24.667,5,144,251011,179371
2026-03-19T16:01:24.706,5,145,251011,179371
2026-03-19T16:01:24.746,5,146,251058,179387
2026-03-19T16:01:24.786,5,147,251058,179387
2026-03-19T16:01:24.827,5,148,251058,179387
2026-03-19T16:01:24.866,5,149,251058,179387
2026-03-19T16:01:24.906,5,150,251104,179389
2026-03-19T16:01:24.945,5,151,251104,179389
2026-03-19T16:01:24.985,5,152,251104,179389
2026-03-19T16:01:25.025,5,153,251104,179389
2026-03-19T16:01:25.065,5,154,251150,179363
2026-03-19T16:01:25.105,5,155,251150,179363
2026-03-19T16:01:25.145,5,156,251150,179363
2026-03-19T16:01:25.185,5,157,251150,179363
2026-03-19T16:01:25.225,5,158,251060,179329
2026-03-19T16:01:25.264,5,159,251060,179329
2026-03-19T16:01:25.305,5,160,251060,179329
2026-03-19T16:01:25.344,5,161,251060,179329
2026-03-19T16:01:25.384,5,162,251081,179394
2026-03-19T16:01:25.424,5,163,251081,179394
2026-03-19T16:01:25.464,5,164,251081,179394
2026-03-19T16:01:25.504,5,165,251081,179394
2026-03-19T16:01:25.543,5,166,251122,179435
2026-03-19T16:01:25.584,5,167,251122,179435
2026-03-19T16:01:25.623,5,168,251122,179435
2026-03-19T16:01:25.663,5,169,251122,179435
2026-03-19T16:01:25.703,5,170,251139,179430
2026-03-19T16:01:25.743,5,171,251139,179430
2026-03-19T16:01:25.783,5,172,251139,179430
2026-03-19T16:01:25.822,5,173,251139,179430
2026-03-19T16:01:25.863,5,174,251144,179434
2026-03-19T16:01:25.902,5,175,251144,179434
2026-03-19T16:01:25.943,5,176,251144,179434
2026-03-19T16:01:25.982,5,177,251144,179434
2026-03-19T16:01:26.022,5,178,251016,179396
2026-03-19T16:01:26.063,5,179,251016,179396
2026-03-19T16:01:26.102,5,180,251016,179396
2026-03-19T16:01:26.142,5,181,251016,179396
2026-03-19T16:01:26.181,5,182,250984,179412
2026-03-19T16:01:26.222,5,183,250984,179412
2026-03-19T16:01:26.262,5,184,250984,179412
2026-03-19T16:01:26.301,5,185,250984,179412
2026-03-19T16:01:26.341,5,186,251001,179445
2026-03-19T16:01:26.380,5,187,251001,179445
2026-03-19T16:01:26.421,5,188,251001,179445
2026-03-19T16:01:26.461,5,189,251001,179445
2026-03-19T16:01:26.500,5,190,251054,179459
2026-03-19T16:01:26.541,5,191,251054,179459
2026-03-19T16:01:26.580,5,192,251054,179459
2026-03-19T16:01:26.620,5,193,251054,179459
2026-03-19T16:01:26.660,5,194,251111,179512
2026-03-19T16:01:26.700,5,195,251111,179512
2026-03-19T16:01:26.740,5,196,251111,179512
2026-03-19T16:01:26.779,5,197,251111,179512
2026-03-19T16:01:26.819,5,198,251034,179444
2026-03-19T16:01:26.859,5,199,251034,179444
2026-03-19T16:01:26.899,5,200,251034,179444
2026-03-19T16:01:26.939,5,201,251034,179444
2026-03-19T16:01:26.979,5,202,251030,179457
2026-03-19T16:01:27.018,5,203,251030,179457
2026-03-19T16:01:27.058,5,204,251030,179457
2026-03-19T16:01:27.099,5,205,251030,179457
2026-03-19T16:01:27.139,5,206,251036,179511
2026-03-19T16:01:27.178,5,207,251036,179511
2026-03-19T16:01:27.218,5,208,251036,179511
2026-03-19T16:01:27.257,5,209,251036,179511
2026-03-19T16:01:27.297,5,210,251091,179565
2026-03-19T16:01:27.337,5,211,251091,179565
2026-03-19T16:01:27.377,5,212,251091,179565
2026-03-19T16:01:27.417,5,213,251091,179565
2026-03-19T16:01:27.458,5,214,251187,179643
2026-03-19T16:01:27.497,5,215,251187,179643
2026-03-19T16:01:27.537,5,216,251187,179643
2026-03-19T16:01:27.577,5,217,251187,179643
2026-03-19T16:01:27.617,5,218,251151,179674
2026-03-19T16:01:27.657,5,219,251151,179674
2026-03-19T16:01:27.697,5,220,251151,179674
2026-03-19T16:01:27.736,5,221,251151,179674
2026-03-19T16:01:27.776,5,222,251169,179774
2026-03-19T16:01:27.816,5,223,251169,179774
2026-03-19T16:01:27.856,5,224,251169,179774
2026-03-19T16:01:27.897,5,225,251169,179774
2026-03-19T16:01:27.936,5,226,251181,179859
2026-03-19T16:01:27.975,5,227,251181,179859
2026-03-19T16:01:28.015,5,228,251181,179859
2026-03-19T16:01:28.055,5,229,251181,179859
2026-03-19T16:01:28.095,5,230,251227,179966
2026-03-19T16:01:28.135,5,231,251227,179966
2026-03-19T16:01:28.175,5,232,251227,179966
2026-03-19T16:01:28.215,5,233,251227,179966
2026-03-19T16:01:28.254,5,234,251279,180036
2026-03-19T16:01:28.294,5,235,251279,180036
2026-03-19T16:01:28.335,5,236,251279,180036
2026-03-19T16:01:28.374,5,237,251279,180036
2026-03-19T16:01:28.414,5,238,251227,180072
2026-03-19T16:01:28.454,5,239,251227,180072
2026-03-19T16:01:28.494,5,240,251227,180072
2026-03-19T16:01:28.534,5,241,251227,180072
2026-03-19T16:01:28.573,5,242,251291,180171
2026-03-19T16:01:28.614,5,243,251291,180171
2026-03-19T16:01:28.654,5,244,251291,180171
2026-03-19T16:01:28.693,5,245,251291,180171
2026-03-19T16:01:28.733,5,246,251290,180235
2026-03-19T16:01:28.773,5,247,251290,180235
2026-03-19T16:01:28.813,5,248,251290,180235
2026-03-19T16:01:28.853,5,249,251290,180235
2026-03-19T16:01:28.892,5,250,251382,180299
2026-03-19T16:01:28.933,5,251,251382,180299
2026-03-19T16:01:32.640,6,0,251199,179588
2026-03-19T16:01:32.680,6,1,251199,179588
2026-03-19T16:01:32.719,6,2,251186,179581
2026-03-19T16:01:32.759,6,3,251186,179581
2026-03-19T16:01:32.799,6,4,251186,179581
2026-03-19T16:01:32.839,6,5,251186,179581
2026-03-19T16:01:32.879,6,6,251228,179586
2026-03-19T16:01:32.919,6,7,251228,179586
2026-03-19T16:01:32.959,6,8,251228,179586
2026-03-19T16:01:32.998,6,9,251228,179586
2026-03-19T16:01:33.038,6,10,251255,179673
2026-03-19T16:01:33.078,6,11,251255,179673
2026-03-19T16:01:33.118,6,12,251255,179673
2026-03-19T16:01:33.158,6,13,251255,179673
2026-03-19T16:01:33.199,6,14,251227,179708
2026-03-19T16:01:33.237,6,15,251227,179708
2026-03-19T16:01:33.277,6,16,251227,179708
2026-03-19T16:01:33.317,6,17,251227,179708
2026-03-19T16:01:33.357,6,18,251161,179773
2026-03-19T16:01:33.397,6,19,251161,179773
2026-03-19T16:01:33.437,6,20,251161,179773
2026-03-19T16:01:33.477,6,21,251161,179773
2026-03-19T16:01:33.517,6,22,251150,179840
2026-03-19T16:01:33.557,6,23,251150,179840
2026-03-19T16:01:33.597,6,24,251150,179840
2026-03-19T16:01:33.636,6,25,251150,179840
2026-03-19T16:01:33.677,6,26,251197,179924
2026-03-19T16:01:33.716,6,27,251197,179924
2026-03-19T16:01:33.755,6,28,251197,179924
2026-03-19T16:01:33.796,6,29,251197,179924
2026-03-19T16:01:33.836,6,30,251261,180047
2026-03-19T16:01:33.876,6,31,251261,180047
2026-03-19T16:01:33.916,6,32,251261,180047
2026-03-19T16:01:33.958,6,33,251261,180047
2026-03-19T16:01:33.996,6,34,251230,180037
2026-03-19T16:01:34.035,6,35,251230,180037
2026-03-19T16:01:34.075,6,36,251230,180037
2026-03-19T16:01:34.114,6,37,251230,180037
2026-03-19T16:01:34.154,6,38,251220,180093
2026-03-19T16:01:34.195,6,39,251220,180093
2026-03-19T16:01:34.235,6,40,251220,180093
2026-03-19T16:01:34.274,6,41,251220,180093
2026-03-19T16:01:34.315,6,42,251259,180151
2026-03-19T16:01:34.354,6,43,251259,180151
2026-03-19T16:01:34.394,6,44,251259,180151
2026-03-19T16:01:34.434,6,45,251259,180151
2026-03-19T16:01:34.474,6,46,251285,180189
2026-03-19T16:01:34.513,6,47,251285,180189
2026-03-19T16:01:34.554,6,48,251285,180189
2026-03-19T16:01:34.593,6,49,251285,180189
2026-03-19T16:01:34.633,6,50,251350,180215
2026-03-19T16:01:34.673,6,51,251350,180215
2026-03-19T16:01:34.712,6,52,251350,180215
2026-03-19T16:01:34.753,6,53,251350,180215
2026-03-19T16:01:34.792,6,54,251278,180191
2026-03-19T16:01:34.832,6,55,251278,180191
2026-03-19T16:01:34.872,6,56,251278,180191
2026-03-19T16:01:34.912,6,57,251278,180191
2026-03-19T16:01:34.952,6,58,251285,180209
2026-03-19T16:01:34.992,6,59,251285,180209
2026-03-19T16:01:35.032,6,60,251285,180209
2026-03-19T16:01:35.071,6,61,251285,180209
2026-03-19T16:01:35.111,6,62,251317,180218
2026-03-19T16:01:35.151,6,63,251317,180218
2026-03-19T16:01:35.191,6,64,251317,180218
2026-03-19T16:01:35.231,6,65,251317,180218
2026-03-19T16:01:35.271,6,66,251339,180234
2026-03-19T16:01:35.310,6,67,251339,180234
2026-03-19T16:01:35.350,6,68,251339,180234
2026-03-19T16:01:35.390,6,69,251339,180234
2026-03-19T16:01:35.430,6,70,251343,180184
2026-03-19T16:01:35.471,6,71,251343,180184
2026-03-19T16:01:35.510,6,72,251343,180184
2026-03-19T16:01:35.550,6,73,251343,180184
2026-03-19T16:01:35.589,6,74,251267,180128
2026-03-19T16:01:35.629,6,75,251267,180128
2026-03-19T16:01:35.669,6,76,251267,180128
2026-03-19T16:01:35.709,6,77,251267,180128
2026-03-19T16:01:35.749,6,78,251266,180099
2026-03-19T16:01:35.789,6,79,251266,180099
2026-03-19T16:01:35.829,6,80,251266,180099
2026-03-19T16:01:35.869,6,81,251266,180099
2026-03-19T16:01:35.909,6,82,251327,180113
2026-03-19T16:01:35.948,6,83,251327,180113
2026-03-19T16:01:35.988,6,84,251327,180113
2026-03-19T16:01:36.028,6,85,251327,180113
2026-03-19T16:01:36.068,6,86,251384,180127
2026-03-19T16:01:36.108,6,87,251384,180127
2026-03-19T16:01:36.148,6,88,251384,180127
2026-03-19T16:01:36.187,6,89,251384,180127
2026-03-19T16:01:36.227,6,90,251280,180022
2026-03-19T16:01:36.268,6,91,251280,180022
2026-03-19T16:01:36.307,6,92,251280,180022
2026-03-19T16:01:36.347,6,93,251280,180022
2026-03-19T16:01:36.387,6,94,251242,179978
2026-03-19T16:01:36.427,6,95,251242,179978
2026-03-19T16:01:36.466,6,96,251242,179978
2026-03-19T16:01:36.507,6,97,251242,179978
2026-03-19T16:01:36.547,6,98,251268,179938
2026-03-19T16:01:36.586,6,99,251268,179938
2026-03-19T16:01:36.626,6,100,251268,179938
2026-03-19T16:01:36.666,6,101,251268,179938
2026-03-19T16:01:36.706,6,102,251329,179914
2026-03-19T16:01:36.746,6,103,251329,179914
2026-03-19T16:01:36.785,6,104,251329,179914
2026-03-19T16:01:36.825,6,105,251329,179914
2026-03-19T16:01:36.865,6,106,251383,179882
2026-03-19T16:01:36.905,6,107,251383,179882
2026-03-19T16:01:36.945,6,108,251383,179882
2026-03-19T16:01:36.985,6,109,251383,179882
2026-03-19T16:01:37.025,6,110,251248,179773
2026-03-19T16:01:37.065,6,111,251248,179773
2026-03-19T16:01:37.104,6,112,251248,179773
2026-03-19T16:01:37.144,6,113,251248,179773
2026-03-19T16:01:37.185,6,114,251226,179749
2026-03-19T16:01:37.224,6,115,251226,179749
2026-03-19T16:01:37.264,6,116,251226,179749
2026-03-19T16:01:37.304,6,117,251226,179749
2026-03-19T16:01:37.344,6,118,251221,179746
2026-03-19T16:01:37.385,6,119,251221,179746
2026-03-19T16:01:37.424,6,120,251221,179746
2026-03-19T16:01:37.463,6,121,251221,179746
2026-03-19T16:01:37.503,6,122,251251,179741
2026-03-19T16:01:37.544,6,123,251251,179741
2026-03-19T16:01:37.584,6,124,251251,179741
2026-03-19T16:01:37.623,6,125,251251,179741
2026-03-19T16:01:37.663,6,126,251298,179758
2026-03-19T16:01:37.702,6,127,251298,179758
2026-03-19T16:01:37.742,6,128,251298,179758
2026-03-19T16:01:37.782,6,129,251298,179758
2026-03-19T16:01:37.822,6,130,251134,179658
2026-03-19T16:01:37.863,6,131,251134,179658
2026-03-19T16:01:37.902,6,132,251134,179658
2026-03-19T16:01:37.942,6,133,251134,179658
2026-03-19T16:01:37.982,6,134,251085,179643
2026-03-19T16:01:38.022,6,135,251085,179643
2026-03-19T16:01:38.061,6,136,251085,179643
2026-03-19T16:01:38.101,6,137,251085,179643
2026-03-19T16:01:38.141,6,138,251094,179626
2026-03-19T16:01:38.181,6,139,251094,179626
2026-03-19T16:01:38.221,6,140,251094,179626
2026-03-19T16:01:38.261,6,141,251094,179626
2026-03-19T16:01:38.300,6,142,251143,179635
2026-03-19T16:01:38.340,6,143,251143,179635
2026-03-19T16:01:38.380,6,144,251143,179635
2026-03-19T16:01:38.420,6,145,251143,179635
2026-03-19T16:01:38.461,6,146,251184,179676
2026-03-19T16:01:38.500,6,147,251184,179676
2026-03-19T16:01:38.540,6,148,251184,179676
2026-03-19T16:01:38.579,6,149,251184,179676
2026-03-19T16:01:38.619,6,150,251111,179572
2026-03-19T16:01:38.659,6,151,251111,179572
2026-03-19T16:01:38.699,6,152,251111,179572
2026-03-19T16:01:38.739,6,153,251111,179572
2026-03-19T16:01:38.779,6,154,251071,179561
2026-03-19T16:01:38.819,6,155,251071,179561
2026-03-19T16:01:38.859,6,156,251071,179561
2026-03-19T16:01:38.898,6,157,251071,179561
2026-03-19T16:01:38.938,6,158,251065,179562
2026-03-19T16:01:38.979,6,159,251065,179562
2026-03-19T16:01:39.018,6,160,251065,179562
2026-03-19T16:01:39.058,6,161,251065,179562
2026-03-19T16:01:39.098,6,162,251095,179616
2026-03-19T16:01:39.138,6,163,251095,179616
2026-03-19T16:01:39.178,6,164,251095,179616
2026-03-19T16:01:39.217,6,165,251095,179616
2026-03-19T16:01:39.258,6,166,251127,179724
2026-03-19T16:01:39.297,6,167,251127,179724
2026-03-19T16:01:39.337,6,168,251127,179724
2026-03-19T16:01:39.377,6,169,251127,179724
2026-03-19T16:01:39.417,6,170,251123,179793
2026-03-19T16:01:39.457,6,171,251123,179793
2026-03-19T16:01:39.496,6,172,251123,179793
2026-03-19T16:01:39.536,6,173,251123,179793
2026-03-19T16:01:39.576,6,174,251049,179876
2026-03-19T16:01:39.616,6,175,251049,179876
2026-03-19T16:01:39.656,6,176,251049,179876
2026-03-19T16:01:39.696,6,177,251049,179876
2026-03-19T16:01:39.736,6,178,251086,179995
2026-03-19T16:01:39.776,6,179,251086,179995
2026-03-19T16:01:39.816,6,180,251086,179995
2026-03-19T16:01:39.856,6,181,251086,179995
2026-03-19T16:01:39.895,6,182,251139,180083
2026-03-19T16:01:39.935,6,183,251139,180083
2026-03-19T16:01:39.975,6,184,251139,180083
2026-03-19T16:01:40.015,6,185,251139,180083
2026-03-19T16:01:40.056,6,186,251235,180204
2026-03-19T16:01:40.095,6,187,251235,180204
2026-03-19T16:01:40.135,6,188,251235,180204
2026-03-19T16:01:40.175,6,189,251235,180204
2026-03-19T16:01:40.214,6,190,251226,180147
2026-03-19T16:01:40.254,6,191,251226,180147
2026-03-19T16:01:40.294,6,192,251226,180147
2026-03-19T16:01:40.334,6,193,251226,180147
2026-03-19T16:01:40.374,6,194,251204,180172
2026-03-19T16:01:40.415,6,195,251204,180172
2026-03-19T16:01:40.453,6,196,251204,180172
2026-03-19T16:01:40.493,6,197,251204,180172
2026-03-19T16:01:40.533,6,198,251115,180208
2026-03-19T16:01:40.574,6,199,251115,180208
2026-03-19T16:01:40.614,6,200,251115,180208
2026-03-19T16:01:40.653,6,201,251115,180208
2026-03-19T16:01:40.693,6,202,251030,180224
2026-03-19T16:01:40.733,6,203,251030,180224
2026-03-19T16:01:40.772,6,204,251030,180224
2026-03-19T16:01:40.813,6,205,251030,180224
2026-03-19T16:01:40.852,6,206,251073,180246
2026-03-19T16:01:40.892,6,207,251073,180246
2026-03-19T16:01:40.932,6,208,251073,180246
2026-03-19T16:01:40.972,6,209,251073,180246
2026-03-19T16:01:41.011,6,210,251010,180258
2026-03-19T16:01:41.051,6,211,251010,180258
2026-03-19T16:01:41.092,6,212,251010,180258
2026-03-19T16:01:41.132,6,213,251010,180258
2026-03-19T16:01:41.172,6,214,251041,180306
2026-03-19T16:01:41.211,6,215,251041,180306
2026-03-19T16:01:41.251,6,216,251041,180306
2026-03-19T16:01:41.290,6,217,251041,180306
2026-03-19T16:01:41.331,6,218,251148,180333
2026-03-19T16:01:41.371,6,219,251148,180333
2026-03-19T16:01:41.410,6,220,251148,180333
2026-03-19T16:01:41.450,6,221,251148,180333
2026-03-19T16:01:41.490,6,222,251230,180378
2026-03-19T16:01:41.530,6,223,251230,180378
2026-03-19T16:01:41.570,6,224,251230,180378
2026-03-19T16:01:41.610,6,225,251230,180378
2026-03-19T16:01:41.650,6,226,251193,180347
2026-03-19T16:01:41.689,6,227,251193,180347
2026-03-19T16:01:41.729,6,228,251193,180347
2026-03-19T16:01:41.769,6,229,251193,180347
2026-03-19T16:01:41.809,6,230,251157,180290
2026-03-19T16:01:41.849,6,231,251157,180290
2026-03-19T16:01:41.889,6,232,251157,180290
2026-03-19T16:01:41.928,6,233,251157,180290
2026-03-19T16:01:41.969,6,234,251153,180232
2026-03-19T16:01:42.008,6,235,251153,180232
2026-03-19T16:01:42.049,6,236,251153,180232
2026-03-19T16:01:42.088,6,237,251153,180232
2026-03-19T16:01:42.128,6,238,251213,180156
2026-03-19T16:01:42.168,6,239,251213,180156
2026-03-19T16:01:42.208,6,240,251213,180156
2026-03-19T16:01:42.247,6,241,251213,180156
2026-03-19T16:01:42.287,6,242,251237,180068
2026-03-19T16:01:42.327,6,243,251237,180068
2026-03-19T16:01:42.367,6,244,251237,180068
2026-03-19T16:01:42.407,6,245,251237,180068
2026-03-19T16:01:42.447,6,246,251141,179983
2026-03-19T16:01:42.487,6,247,251141,179983
2026-03-19T16:01:42.526,6,248,251141,179983
2026-03-19T16:01:42.566,6,249,251141,179983
2026-03-19T16:01:42.606,6,250,251158,179974
2026-03-19T16:01:42.647,6,251,251158,179974
2026-03-19T16:01:46.952,7,0,251279,180433
2026-03-19T16:01:46.992,7,1,251279,180433
2026-03-19T16:01:47.032,7,2,251279,180433
2026-03-19T16:01:47.072,7,3,251301,180509
2026-03-19T16:01:47.111,7,4,251301,180509
2026-03-19T16:01:47.151,7,5,251301,180509
2026-03-19T16:01:47.191,7,6,251301,180509
2026-03-19T16:01:47.231,7,7,251340,180554
2026-03-19T16:01:47.271,7,8,251340,180554
2026-03-19T16:01:47.311,7,9,251340,180554
2026-03-19T16:01:47.351,7,10,251340,180554
2026-03-19T16:01:47.390,7,11,251379,180623
2026-03-19T16:01:47.430,7,12,251379,180623
2026-03-19T16:01:47.471,7,13,251379,180623
2026-03-19T16:01:47.510,7,14,251379,180623
2026-03-19T16:01:47.550,7,15,251366,180579
2026-03-19T16:01:47.590,7,16,251366,180579
2026-03-19T16:01:47.629,7,17,251366,180579
2026-03-19T16:01:47.669,7,18,251366,180579
2026-03-19T16:01:47.709,7,19,251314,180571
2026-03-19T16:01:47.749,7,20,251314,180571
2026-03-19T16:01:47.789,7,21,251314,180571
2026-03-19T16:01:47.829,7,22,251314,180571
2026-03-19T16:01:47.869,7,23,251317,180582
2026-03-19T16:01:47.909,7,24,251317,180582
2026-03-19T16:01:47.949,7,25,251317,180582
2026-03-19T16:01:47.988,7,26,251317,180582
2026-03-19T16:01:48.029,7,27,251362,180596
2026-03-19T16:01:48.068,7,28,251362,180596
2026-03-19T16:01:48.108,7,29,251362,180596
2026-03-19T16:01:48.148,7,30,251362,180596
2026-03-19T16:01:48.188,7,31,251395,180587
2026-03-19T16:01:48.228,7,32,251395,180587
2026-03-19T16:01:48.268,7,33,251395,180587
2026-03-19T16:01:48.307,7,34,251395,180587
2026-03-19T16:01:48.347,7,35,251300,180527
2026-03-19T16:01:48.387,7,36,251300,180527
2026-03-19T16:01:48.427,7,37,251300,180527
2026-03-19T16:01:48.467,7,38,251300,180527
2026-03-19T16:01:48.506,7,39,251295,180539
2026-03-19T16:01:48.546,7,40,251295,180539
2026-03-19T16:01:48.586,7,41,251295,180539
2026-03-19T16:01:48.626,7,42,251295,180539
2026-03-19T16:01:48.666,7,43,251315,180538
2026-03-19T16:01:48.706,7,44,251315,180538
2026-03-19T16:01:48.746,7,45,251315,180538
2026-03-19T16:01:48.786,7,46,251315,180538
2026-03-19T16:01:48.827,7,47,251378,180553
2026-03-19T16:01:48.865,7,48,251378,180553
2026-03-19T16:01:48.905,7,49,251378,180553
2026-03-19T16:01:48.945,7,50,251378,180553
2026-03-19T16:01:48.985,7,51,251250,180457
2026-03-19T16:01:49.025,7,52,251250,180457
2026-03-19T16:01:49.064,7,53,251250,180457
2026-03-19T16:01:49.105,7,54,251250,180457
2026-03-19T16:01:49.144,7,55,251185,180426
2026-03-19T16:01:49.184,7,56,251185,180426
2026-03-19T16:01:49.224,7,57,251185,180426
2026-03-19T16:01:49.264,7,58,251185,180426
2026-03-19T16:01:49.304,7,59,251222,180383
2026-03-19T16:01:49.343,7,60,251222,180383
2026-03-19T16:01:49.383,7,61,251222,180383
2026-03-19T16:01:49.424,7,62,251222,180383
2026-03-19T16:01:49.463,7,63,251260,180391
2026-03-19T16:01:49.503,7,64,251260,180391
2026-03-19T16:01:49.543,7,65,251260,180391
2026-03-19T16:01:49.583,7,66,251260,180391
2026-03-19T16:01:49.623,7,67,251302,180373
2026-03-19T16:01:49.663,7,68,251302,180373
2026-03-19T16:01:49.703,7,69,251302,180373
2026-03-19T16:01:49.743,7,70,251302,180373
2026-03-19T16:01:49.783,7,71,251148,180296
2026-03-19T16:01:49.822,7,72,251148,180296
2026-03-19T16:01:49.862,7,73,251148,180296
2026-03-19T16:01:49.902,7,74,251148,180296
2026-03-19T16:01:49.941,7,75,251158,180290
2026-03-19T16:01:49.981,7,76,251158,180290
2026-03-19T16:01:50.021,7,77,251158,180290
2026-03-19T16:01:50.061,7,78,251158,180290
2026-03-19T16:01:50.101,7,79,251169,180291
2026-03-19T16:01:50.141,7,80,251169,180291
2026-03-19T16:01:50.181,7,81,251169,180291
2026-03-19T16:01:50.221,7,82,251169,180291
2026-03-19T16:01:50.261,7,83,251229,180317
2026-03-19T16:01:50.300,7,84,251229,180317
2026-03-19T16:01:50.341,7,85,251229,180317
2026-03-19T16:01:50.381,7,86,251229,180317
2026-03-19T16:01:50.420,7,87,251258,180308
2026-03-19T16:01:50.460,7,88,251258,180308
2026-03-19T16:01:50.500,7,89,251258,180308
2026-03-19T16:01:50.540,7,90,251258,180308
2026-03-19T16:01:50.580,7,91,251136,180238
2026-03-19T16:01:50.619,7,92,251136,180238
2026-03-19T16:01:50.659,7,93,251136,180238
2026-03-19T16:01:50.699,7,94,251136,180238
2026-03-19T16:01:50.739,7,95,251132,180266
2026-03-19T16:01:50.779,7,96,251132,180266
2026-03-19T16:01:50.819,7,97,251132,180266
2026-03-19T16:01:50.859,7,98,251132,180266
2026-03-19T16:01:50.899,7,99,251152,180329
2026-03-19T16:01:50.939,7,100,251152,180329
2026-03-19T16:01:50.979,7,101,251152,180329
2026-03-19T16:01:51.018,7,102,251152,180329
2026-03-19T16:01:51.058,7,103,251197,180354
2026-03-19T16:01:51.098,7,104,251197,180354
2026-03-19T16:01:51.137,7,105,251197,180354
2026-03-19T16:01:51.178,7,106,251197,180354
2026-03-19T16:01:51.217,7,107,251313,180396
2026-03-19T16:01:51.257,7,108,251313,180396
2026-03-19T16:01:51.297,7,109,251313,180396
2026-03-19T16:01:51.337,7,110,251313,180396
2026-03-19T16:01:51.377,7,111,251203,180303
2026-03-19T16:01:51.417,7,112,251203,180303
2026-03-19T16:01:51.457,7,113,251203,180303
2026-03-19T16:01:51.496,7,114,251203,180303
2026-03-19T16:01:51.536,7,115,251188,180288
2026-03-19T16:01:51.576,7,116,251188,180288
2026-03-19T16:01:51.616,7,117,251188,180288
2026-03-19T16:01:51.656,7,118,251188,180288
2026-03-19T16:01:51.696,7,119,251198,180303
2026-03-19T16:01:51.736,7,120,251198,180303
2026-03-19T16:01:51.776,7,121,251198,180303
2026-03-19T16:01:51.816,7,122,251198,180303
2026-03-19T16:01:51.855,7,123,251277,180305
2026-03-19T16:01:51.895,7,124,251277,180305
2026-03-19T16:01:51.935,7,125,251277,180305
2026-03-19T16:01:51.975,7,126,251277,180305
2026-03-19T16:01:52.015,7,127,251337,180351
2026-03-19T16:01:52.055,7,128,251337,180351
2026-03-19T16:01:52.094,7,129,251337,180351
2026-03-19T16:01:52.134,7,130,251337,180351
2026-03-19T16:01:52.174,7,131,251285,180286
2026-03-19T16:01:52.214,7,132,251285,180286
2026-03-19T16:01:52.254,7,133,251285,180286
2026-03-19T16:01:52.294,7,134,251285,180286
2026-03-19T16:01:52.333,7,135,251254,180326
2026-03-19T16:01:52.373,7,136,251254,180326
2026-03-19T16:01:52.414,7,137,251254,180326
2026-03-19T16:01:52.454,7,138,251254,180326
2026-03-19T16:01:52.493,7,139,251296,180425
2026-03-19T16:01:52.534,7,140,251296,180425
2026-03-19T16:01:52.574,7,141,251296,180425
2026-03-19T16:01:52.613,7,142,251296,180425
2026-03-19T16:01:52.653,7,143,251354,180525
2026-03-19T16:01:52.692,7,144,251354,180525
2026-03-19T16:01:52.732,7,145,251354,180525
2026-03-19T16:01:52.772,7,146,251354,180525
2026-03-19T16:01:52.812,7,147,251455,180652
2026-03-19T16:01:52.852,7,148,251455,180652
2026-03-19T16:01:52.892,7,149,251455,180652
2026-03-19T16:01:52.932,7,150,251455,180652
2026-03-19T16:01:52.972,7,151,251385,180657
2026-03-19T16:01:53.013,7,152,251385,180657
2026-03-19T16:01:53.052,7,153,251385,180657
2026-03-19T16:01:53.091,7,154,251385,180657
2026-03-19T16:01:53.131,7,155,251381,180717
2026-03-19T16:01:53.171,7,156,251381,180717
2026-03-19T16:01:53.212,7,157,251381,180717
2026-03-19T16:01:53.251,7,158,251381,180717
2026-03-19T16:01:53.291,7,159,251399,180774
2026-03-19T16:01:53.331,7,160,251399,180774
2026-03-19T16:01:53.371,7,161,251399,180774
2026-03-19T16:01:53.411,7,162,251399,180774
2026-03-19T16:01:53.450,7,163,251448,180832
2026-03-19T16:01:53.490,7,164,251448,180832
2026-03-19T16:01:53.530,7,165,251448,180832
2026-03-19T16:01:53.571,7,166,251448,180832
2026-03-19T16:01:53.610,7,167,251497,180857
2026-03-19T16:01:53.649,7,168,251497,180857
2026-03-19T16:01:53.690,7,169,251497,180857
2026-03-19T16:01:53.730,7,170,251497,180857
2026-03-19T16:01:53.769,7,171,251406,180798
2026-03-19T16:01:53.809,7,172,251406,180798
2026-03-19T16:01:53.848,7,173,251406,180798
2026-03-19T16:01:53.889,7,174,251406,180798
2026-03-19T16:01:53.929,7,175,251405,180813
2026-03-19T16:01:53.969,7,176,251405,180813
2026-03-19T16:01:54.009,7,177,251405,180813
2026-03-19T16:01:54.048,7,178,251405,180813
2026-03-19T16:01:54.088,7,179,251414,180771
2026-03-19T16:01:54.128,7,180,251414,180771
2026-03-19T16:01:54.167,7,181,251414,180771
2026-03-19T16:01:54.208,7,182,251414,180771
2026-03-19T16:01:54.247,7,183,251463,180754
2026-03-19T16:01:54.287,7,184,251463,180754
2026-03-19T16:01:54.327,7,185,251463,180754
2026-03-19T16:01:54.367,7,186,251463,180754
2026-03-19T16:01:54.407,7,187,251459,180636
2026-03-19T16:01:54.447,7,188,251459,180636
2026-03-19T16:01:54.486,7,189,251459,180636
2026-03-19T16:01:54.526,7,190,251459,180636
2026-03-19T16:01:54.566,7,191,251365,180533
2026-03-19T16:01:54.606,7,192,251365,180533
2026-03-19T16:01:54.646,7,193,251365,180533
2026-03-19T16:01:54.687,7,194,251365,180533
2026-03-19T16:01:54.726,7,195,251382,180496
2026-03-19T16:01:54.766,7,196,251382,180496
2026-03-19T16:01:54.806,7,197,251382,180496
2026-03-19T16:01:54.846,7,198,251382,180496
2026-03-19T16:01:54.886,7,199,251423,180475
2026-03-19T16:01:54.926,7,200,251423,180475
2026-03-19T16:01:54.965,7,201,251423,180475
2026-03-19T16:01:55.008,7,202,251423,180475
2026-03-19T16:01:55.045,7,203,251494,180494
2026-03-19T16:01:55.084,7,204,251494,180494
2026-03-19T16:01:55.125,7,205,251494,180494
2026-03-19T16:01:55.164,7,206,251494,180494
2026-03-19T16:01:55.204,7,207,251432,180404
2026-03-19T16:01:55.245,7,208,251432,180404
2026-03-19T16:01:55.284,7,209,251432,180404
2026-03-19T16:01:55.324,7,210,251432,180404
2026-03-19T16:01:55.365,7,211,251391,180374
2026-03-19T16:01:55.404,7,212,251391,180374
2026-03-19T16:01:55.444,7,213,251391,180374
2026-03-19T16:01:55.484,7,214,251391,180374
2026-03-19T16:01:55.523,7,215,251397,180338
2026-03-19T16:01:55.564,7,216,251397,180338
2026-03-19T16:01:55.603,7,217,251397,180338
2026-03-19T16:01:55.643,7,218,251397,180338
2026-03-19T16:01:55.683,7,219,251456,180311
2026-03-19T16:01:55.723,7,220,251456,180311
2026-03-19T16:01:55.763,7,221,251456,180311
2026-03-19T16:01:55.803,7,222,251456,180311
2026-03-19T16:01:55.843,7,223,251529,180296
2026-03-19T16:01:55.882,7,224,251529,180296
2026-03-19T16:01:55.922,7,225,251529,180296
2026-03-19T16:01:55.962,7,226,251529,180296
2026-03-19T16:01:56.002,7,227,251458,180179
2026-03-19T16:01:56.042,7,228,251458,180179
2026-03-19T16:01:56.081,7,229,251458,180179
2026-03-19T16:01:56.121,7,230,251458,180179
2026-03-19T16:01:56.161,7,231,251427,180128
2026-03-19T16:01:56.201,7,232,251427,180128
2026-03-19T16:01:56.241,7,233,251427,180128
2026-03-19T16:01:56.281,7,234,251427,180128
2026-03-19T16:01:56.321,7,235,251452,180105
2026-03-19T16:01:56.361,7,236,251452,180105
2026-03-19T16:01:56.400,7,237,251452,180105
2026-03-19T16:01:56.441,7,238,251452,180105
2026-03-19T16:01:56.480,7,239,251504,180085
2026-03-19T16:01:56.520,7,240,251504,180085
2026-03-19T16:01:56.560,7,241,251504,180085
2026-03-19T16:01:56.600,7,242,251504,180085
2026-03-19T16:01:56.640,7,243,251558,180114
2026-03-19T16:01:56.680,7,244,251558,180114
2026-03-19T16:01:56.719,7,245,251558,180114
2026-03-19T16:01:56.759,7,246,251558,180114
2026-03-19T16:01:56.799,7,247,251527,180000
2026-03-19T16:01:56.839,7,248,251527,180000
2026-03-19T16:01:56.878,7,249,251527,180000
2026-03-19T16:01:56.918,7,250,251527,180000
2026-03-19T16:01:56.959,7,251,251470,179968
2026-03-19T16:02:10.434,8,0,252205,180626
2026-03-19T16:02:10.474,8,1,252205,180626
2026-03-19T16:02:10.513,8,2,252228,180583
2026-03-19T16:02:10.553,8,3,252228,180583
2026-03-19T16:02:10.593,8,4,252228,180583
2026-03-19T16:02:10.633,8,5,252228,180583
2026-03-19T16:02:10.673,8,6,252282,180561
2026-03-19T16:02:10.713,8,7,252282,180561
2026-03-19T16:02:10.753,8,8,252282,180561
2026-03-19T16:02:10.793,8,9,252282,180561
2026-03-19T16:02:10.833,8,10,252319,180553
2026-03-19T16:02:10.873,8,11,252319,180553
2026-03-19T16:02:10.912,8,12,252319,180553
2026-03-19T16:02:10.953,8,13,252319,180553
2026-03-19T16:02:10.992,8,14,252194,180491
2026-03-19T16:02:11.032,8,15,252194,180491
2026-03-19T16:02:11.072,8,16,252194,180491
2026-03-19T16:02:11.112,8,17,252194,180491
2026-03-19T16:02:11.152,8,18,252184,180471
2026-03-19T16:02:11.191,8,19,252184,180471
2026-03-19T16:02:11.233,8,20,252184,180471
2026-03-19T16:02:11.271,8,21,252184,180471
2026-03-19T16:02:11.311,8,22,252180,180453
2026-03-19T16:02:11.351,8,23,252180,180453
2026-03-19T16:02:11.391,8,24,252180,180453
2026-03-19T16:02:11.430,8,25,252180,180453
2026-03-19T16:02:11.471,8,26,252173,180415
2026-03-19T16:02:11.510,8,27,252173,180415
2026-03-19T16:02:11.551,8,28,252173,180415
2026-03-19T16:02:11.590,8,29,252173,180415
2026-03-19T16:02:11.630,8,30,252192,180395
2026-03-19T16:02:11.670,8,31,252192,180395
2026-03-19T16:02:11.711,8,32,252192,180395
2026-03-19T16:02:11.750,8,33,252192,180395
2026-03-19T16:02:11.790,8,34,252050,180289
2026-03-19T16:02:11.830,8,35,252050,180289
2026-03-19T16:02:11.869,8,36,252050,180289
2026-03-19T16:02:11.909,8,37,252050,180289
2026-03-19T16:02:11.949,8,38,252005,180255
2026-03-19T16:02:11.989,8,39,252005,180255
2026-03-19T16:02:12.028,8,40,252005,180255
2026-03-19T16:02:12.068,8,41,252005,180255
2026-03-19T16:02:12.109,8,42,251999,180198
2026-03-19T16:02:12.148,8,43,251999,180198
2026-03-19T16:02:12.188,8,44,251999,180198
2026-03-19T16:02:12.228,8,45,251999,180198
2026-03-19T16:02:12.268,8,46,252022,180145
2026-03-19T16:02:12.308,8,47,252022,180145
2026-03-19T16:02:12.347,8,48,252022,180145
2026-03-19T16:02:12.387,8,49,252022,180145
2026-03-19T16:02:12.427,8,50,252040,180085
2026-03-19T16:02:12.467,8,51,252040,180085
2026-03-19T16:02:12.507,8,52,252040,180085
2026-03-19T16:02:12.547,8,53,252040,180085
2026-03-19T16:02:12.587,8,54,251928,179980
2026-03-19T16:02:12.626,8,55,251928,179980
2026-03-19T16:02:12.666,8,56,251928,179980
2026-03-19T16:02:12.706,8,57,251928,179980
2026-03-19T16:02:12.746,8,58,251911,179941
2026-03-19T16:02:12.786,8,59,251911,179941
2026-03-19T16:02:12.826,8,60,251911,179941
2026-03-19T16:02:12.866,8,61,251911,179941
2026-03-19T16:02:12.905,8,62,251900,179900
2026-03-19T16:02:12.945,8,63,251900,179900
2026-03-19T16:02:12.985,8,64,251900,179900
2026-03-19T16:02:13.025,8,65,251900,179900
2026-03-19T16:02:13.065,8,66,251875,179876
2026-03-19T16:02:13.105,8,67,251875,179876
2026-03-19T16:02:13.145,8,68,251875,179876
2026-03-19T16:02:13.185,8,69,251875,179876
2026-03-19T16:02:13.224,8,70,251785,179784
2026-03-19T16:02:13.264,8,71,251785,179784
2026-03-19T16:02:13.305,8,72,251785,179784
2026-03-19T16:02:13.345,8,73,251785,179784
2026-03-19T16:02:13.384,8,74,251655,179741
2026-03-19T16:02:13.424,8,75,251655,179741
2026-03-19T16:02:13.464,8,76,251655,179741
2026-03-19T16:02:13.504,8,77,251655,179741
2026-03-19T16:02:13.544,8,78,251528,179768
2026-03-19T16:02:13.584,8,79,251528,179768
2026-03-19T16:02:13.623,8,80,251528,179768
2026-03-19T16:02:13.663,8,81,251528,179768
2026-03-19T16:02:13.703,8,82,251490,179866
2026-03-19T16:02:13.743,8,83,251490,179866
2026-03-19T16:02:13.783,8,84,251490,179866
2026-03-19T16:02:13.823,8,85,251490,179866
2026-03-19T16:02:13.863,8,86,251553,179986
2026-03-19T16:02:13.902,8,87,251553,179986
2026-03-19T16:02:13.942,8,88,251553,179986
2026-03-19T16:02:13.982,8,89,251553,179986
2026-03-19T16:02:14.022,8,90,251515,180004
2026-03-19T16:02:14.062,8,91,251515,180004
2026-03-19T16:02:14.102,8,92,251515,180004
2026-03-19T16:02:14.142,8,93,251515,180004
2026-03-19T16:02:14.181,8,94,251487,180085
2026-03-19T16:02:14.221,8,95,251487,180085
2026-03-19T16:02:14.261,8,96,251487,180085
2026-03-19T16:02:14.301,8,97,251487,180085
2026-03-19T16:02:14.341,8,98,251490,180171
2026-03-19T16:02:14.381,8,99,251490,180171
2026-03-19T16:02:14.421,8,100,251490,180171
2026-03-19T16:02:14.460,8,101,251490,180171
2026-03-19T16:02:14.501,8,102,251544,180264
2026-03-19T16:02:14.540,8,103,251544,180264
2026-03-19T16:02:14.580,8,104,251544,180264
2026-03-19T16:02:14.621,8,105,251544,180264
2026-03-19T16:02:14.661,8,106,251612,180318
2026-03-19T16:02:14.701,8,107,251612,180318
2026-03-19T16:02:14.740,8,108,251612,180318
2026-03-19T16:02:14.779,8,109,251612,180318
2026-03-19T16:02:14.819,8,110,251552,180324
2026-03-19T16:02:14.859,8,111,251552,180324
2026-03-19T16:02:14.899,8,112,251552,180324
2026-03-19T16:02:14.939,8,113,251552,180324
2026-03-19T16:02:14.979,8,114,251601,180392
2026-03-19T16:02:15.018,8,115,251601,180392
2026-03-19T16:02:15.058,8,116,251601,180392
2026-03-19T16:02:15.098,8,117,251601,180392
2026-03-19T16:02:15.138,8,118,251633,180466
2026-03-19T16:02:15.178,8,119,251633,180466
2026-03-19T16:02:15.218,8,120,251633,180466
2026-03-19T16:02:15.258,8,121,251633,180466
2026-03-19T16:02:15.297,8,122,251689,180531
2026-03-19T16:02:15.338,8,123,251689,180531
2026-03-19T16:02:15.377,8,124,251689,180531
2026-03-19T16:02:15.417,8,125,251689,180531
2026-03-19T16:02:15.457,8,126,251651,180538
2026-03-19T16:02:15.497,8,127,251651,180538
2026-03-19T16:02:15.537,8,128,251651,180538
2026-03-19T16:02:15.577,8,129,251651,180538
2026-03-19T16:02:15.617,8,130,251661,180615
2026-03-19T16:02:15.657,8,131,251661,180615
2026-03-19T16:02:15.697,8,132,251661,180615
2026-03-19T16:02:15.737,8,133,251661,180615
2026-03-19T16:02:15.776,8,134,251669,180696
2026-03-19T16:02:15.819,8,135,251669,180696
2026-03-19T16:02:15.856,8,136,251669,180696
2026-03-19T16:02:15.896,8,137,251669,180696
2026-03-19T16:02:15.936,8,138,251689,180793
2026-03-19T16:02:15.976,8,139,251689,180793
2026-03-19T16:02:16.015,8,140,251689,180793
2026-03-19T16:02:16.055,8,141,251689,180793
2026-03-19T16:02:16.095,8,142,251640,180764
2026-03-19T16:02:16.135,8,143,251640,180764
2026-03-19T16:02:16.175,8,144,251640,180764
2026-03-19T16:02:16.215,8,145,251640,180764
2026-03-19T16:02:16.255,8,146,251615,180822
2026-03-19T16:02:16.294,8,147,251615,180822
2026-03-19T16:02:16.335,8,148,251615,180822
2026-03-19T16:02:16.375,8,149,251615,180822
2026-03-19T16:02:16.414,8,150,251640,180899
2026-03-19T16:02:16.454,8,151,251640,180899
2026-03-19T16:02:16.494,8,152,251640,180899
2026-03-19T16:02:16.534,8,153,251640,180899
2026-03-19T16:02:16.574,8,154,251693,180989
2026-03-19T16:02:16.614,8,155,251693,180989
2026-03-19T16:02:16.654,8,156,251693,180989
2026-03-19T16:02:16.693,8,157,251693,180989
2026-03-19T16:02:16.733,8,158,251660,180958
2026-03-19T16:02:16.773,8,159,251660,180958
2026-03-19T16:02:16.813,8,160,251660,180958
2026-03-19T16:02:16.852,8,161,251660,180958
2026-03-19T16:02:16.893,8,162,251616,180982
2026-03-19T16:02:16.932,8,163,251616,180982
2026-03-19T16:02:16.972,8,164,251616,180982
2026-03-19T16:02:17.012,8,165,251616,180982
2026-03-19T16:02:17.052,8,166,251650,181076
2026-03-19T16:02:17.092,8,167,251650,181076
2026-03-19T16:02:17.132,8,168,251650,181076
2026-03-19T16:02:17.172,8,169,251650,181076
2026-03-19T16:02:17.212,8,170,251700,181150
2026-03-19T16:02:17.251,8,171,251700,181150
2026-03-19T16:02:17.291,8,172,251700,181150
2026-03-19T16:02:17.331,8,173,251700,181150
2026-03-19T16:02:17.371,8,174,251708,181159
2026-03-19T16:02:17.411,8,175,251708,181159
2026-03-19T16:02:17.450,8,176,251708,181159
2026-03-19T16:02:17.491,8,177,251708,181159
2026-03-19T16:02:17.530,8,178,251593,181123
2026-03-19T16:02:17.570,8,179,251593,181123
2026-03-19T16:02:17.610,8,180,251593,181123
2026-03-19T16:02:17.650,8,181,251593,181123
2026-03-19T16:02:17.690,8,182,251610,181206
2026-03-19T16:02:17.730,8,183,251610,181206
2026-03-19T16:02:17.769,8,184,251610,181206
2026-03-19T16:02:17.809,8,185,251610,181206
2026-03-19T16:02:17.849,8,186,251662,181269
2026-03-19T16:02:17.890,8,187,251662,181269
2026-03-19T16:02:17.929,8,188,251662,181269
2026-03-19T16:02:17.969,8,189,251662,181269
2026-03-19T16:02:18.009,8,190,251722,181345
2026-03-19T16:02:18.049,8,191,251722,181345
2026-03-19T16:02:18.089,8,192,251722,181345
2026-03-19T16:02:18.129,8,193,251722,181345
2026-03-19T16:02:18.168,8,194,251658,181371
2026-03-19T16:02:18.208,8,195,251658,181371
2026-03-19T16:02:18.248,8,196,251658,181371
2026-03-19T16:02:18.288,8,197,251658,181371
2026-03-19T16:02:18.328,8,198,251617,181433
2026-03-19T16:02:18.367,8,199,251617,181433
2026-03-19T16:02:18.408,8,200,251617,181433
2026-03-19T16:02:18.447,8,201,251617,181433
2026-03-19T16:02:18.487,8,202,251631,181523
2026-03-19T16:02:18.527,8,203,251631,181523
2026-03-19T16:02:18.567,8,204,251631,181523
2026-03-19T16:02:18.607,8,205,251631,181523
2026-03-19T16:02:18.647,8,206,251696,181608
2026-03-19T16:02:18.687,8,207,251696,181608
2026-03-19T16:02:18.726,8,208,251696,181608
2026-03-19T16:02:18.767,8,209,251696,181608
2026-03-19T16:02:18.806,8,210,251774,181661
2026-03-19T16:02:18.846,8,211,251774,181661
2026-03-19T16:02:18.886,8,212,251774,181661
2026-03-19T16:02:18.926,8,213,251774,181661
2026-03-19T16:02:18.966,8,214,251636,181614
2026-03-19T16:02:19.006,8,215,251636,181614
2026-03-19T16:02:19.045,8,216,251636,181614
2026-03-19T16:02:19.085,8,217,251636,181614
2026-03-19T16:02:19.125,8,218,251630,181636
2026-03-19T16:02:19.165,8,219,251630,181636
2026-03-19T16:02:19.205,8,220,251630,181636
2026-03-19T16:02:19.245,8,221,251630,181636
2026-03-19T16:02:19.285,8,222,251656,181660
2026-03-19T16:02:19.324,8,223,251656,181660
2026-03-19T16:02:19.364,8,224,251656,181660
2026-03-19T16:02:19.404,8,225,251656,181660
2026-03-19T16:02:19.445,8,226,251718,181684
2026-03-19T16:02:19.485,8,227,251718,181684
2026-03-19T16:02:19.524,8,228,251718,181684
2026-03-19T16:02:19.564,8,229,251718,181684
2026-03-19T16:02:19.604,8,230,251775,181714
2026-03-19T16:02:19.644,8,231,251775,181714
2026-03-19T16:02:19.683,8,232,251775,181714
2026-03-19T16:02:19.723,8,233,251775,181714
2026-03-19T16:02:19.763,8,234,251674,181597
2026-03-19T16:02:19.803,8,235,251674,181597
2026-03-19T16:02:19.843,8,236,251674,181597
2026-03-19T16:02:19.883,8,237,251674,181597
2026-03-19T16:02:19.923,8,238,251645,181543
2026-03-19T16:02:19.963,8,239,251645,181543
2026-03-19T16:02:20.002,8,240,251645,181543
2026-03-19T16:02:20.042,8,241,251645,181543
2026-03-19T16:02:20.082,8,242,251672,181538
2026-03-19T16:02:20.122,8,243,251672,181538
2026-03-19T16:02:20.161,8,244,251672,181538
2026-03-19T16:02:20.202,8,245,251672,181538
2026-03-19T16:02:20.242,8,246,251713,181518
2026-03-19T16:02:20.282,8,247,251713,181518
2026-03-19T16:02:20.322,8,248,251713,181518
2026-03-19T16:02:20.361,8,249,251713,181518
2026-03-19T16:02:20.401,8,250,251763,181494
2026-03-19T16:02:20.441,8,251,251763,181494
2026-03-19T16:02:23.431,9,0,251835,180715
2026-03-19T16:02:23.471,9,1,251835,180715
2026-03-19T16:02:23.511,9,2,251835,180715
2026-03-19T16:02:23.551,9,3,251835,180715
2026-03-19T16:02:23.591,9,4,251827,180670
2026-03-19T16:02:23.631,9,5,251827,180670
2026-03-19T16:02:23.670,9,6,251827,180670
2026-03-19T16:02:23.710,9,7,251827,180670
2026-03-19T16:02:23.751,9,8,251870,180644
2026-03-19T16:02:23.790,9,9,251870,180644
2026-03-19T16:02:23.831,9,10,251870,180644
2026-03-19T16:02:23.871,9,11,251870,180644
2026-03-19T16:02:23.910,9,12,251901,180644
2026-03-19T16:02:23.950,9,13,251901,180644
2026-03-19T16:02:23.989,9,14,251901,180644
2026-03-19T16:02:24.029,9,15,251901,180644
2026-03-19T16:02:24.069,9,16,251830,180543
2026-03-19T16:02:24.109,9,17,251830,180543
2026-03-19T16:02:24.149,9,18,251830,180543
2026-03-19T16:02:24.189,9,19,251830,180543
2026-03-19T16:02:24.229,9,20,251736,180499
2026-03-19T16:02:24.268,9,21,251736,180499
2026-03-19T16:02:24.308,9,22,251736,180499
2026-03-19T16:02:24.348,9,23,251736,180499
2026-03-19T16:02:24.388,9,24,251744,180479
2026-03-19T16:02:24.428,9,25,251744,180479
2026-03-19T16:02:24.467,9,26,251744,180479
2026-03-19T16:02:24.509,9,27,251744,180479
2026-03-19T16:02:24.548,9,28,251755,180469
2026-03-19T16:02:24.587,9,29,251755,180469
2026-03-19T16:02:24.628,9,30,251755,180469
2026-03-19T16:02:24.667,9,31,251755,180469
2026-03-19T16:02:24.707,9,32,251807,180478
2026-03-19T16:02:24.747,9,33,251807,180478
2026-03-19T16:02:24.787,9,34,251807,180478
2026-03-19T16:02:24.827,9,35,251807,180478
2026-03-19T16:02:24.867,9,36,251765,180414
2026-03-19T16:02:24.908,9,37,251765,180414
2026-03-19T16:02:24.947,9,38,251765,180414
2026-03-19T16:02:24.987,9,39,251765,180414
2026-03-19T16:02:25.027,9,40,251659,180326
2026-03-19T16:02:25.066,9,41,251659,180326
2026-03-19T16:02:25.106,9,42,251659,180326
2026-03-19T16:02:25.146,9,43,251659,180326
2026-03-19T16:02:25.185,9,44,251647,180299
2026-03-19T16:02:25.226,9,45,251647,180299
2026-03-19T16:02:25.265,9,46,251647,180299
2026-03-19T16:02:25.305,9,47,251647,180299
2026-03-19T16:02:25.345,9,48,251653,180280
2026-03-19T16:02:25.385,9,49,251653,180280
2026-03-19T16:02:25.425,9,50,251653,180280
2026-03-19T16:02:25.465,9,51,251653,180280
2026-03-19T16:02:25.505,9,52,251698,180288
2026-03-19T16:02:25.544,9,53,251698,180288
2026-03-19T16:02:25.584,9,54,251698,180288
2026-03-19T16:02:25.625,9,55,251698,180288
2026-03-19T16:02:25.664,9,56,251713,180271
2026-03-19T16:02:25.704,9,57,251713,180271
2026-03-19T16:02:25.744,9,58,251713,180271
2026-03-19T16:02:25.783,9,59,251713,180271
2026-03-19T16:02:25.823,9,60,251565,180167
2026-03-19T16:02:25.864,9,61,251565,180167
2026-03-19T16:02:25.903,9,62,251565,180167
2026-03-19T16:02:25.943,9,63,251565,180167
2026-03-19T16:02:25.983,9,64,251544,180175
2026-03-19T16:02:26.023,9,65,251544,180175
2026-03-19T16:02:26.063,9,66,251544,180175
2026-03-19T16:02:26.103,9,67,251544,180175
2026-03-19T16:02:26.143,9,68,251491,180141
2026-03-19T16:02:26.182,9,69,251491,180141
2026-03-19T16:02:26.222,9,70,251491,180141
2026-03-19T16:02:26.262,9,71,251491,180141
2026-03-19T16:02:26.302,9,72,251473,180123
2026-03-19T16:02:26.342,9,73,251473,180123
2026-03-19T16:02:26.381,9,74,251473,180123
2026-03-19T16:02:26.421,9,75,251473,180123
2026-03-19T16:02:26.461,9,76,251496,180138
2026-03-19T16:02:26.501,9,77,251496,180138
2026-03-19T16:02:26.541,9,78,251496,180138
2026-03-19T16:02:26.580,9,79,251496,180138
2026-03-19T16:02:26.620,9,80,251391,180087
2026-03-19T16:02:26.660,9,81,251391,180087
2026-03-19T16:02:26.701,9,82,251391,180087
2026-03-19T16:02:26.741,9,83,251391,180087
2026-03-19T16:02:26.780,9,84,251363,180187
2026-03-19T16:02:26.820,9,85,251363,180187
2026-03-19T16:02:26.860,9,86,251363,180187
2026-03-19T16:02:26.900,9,87,251363,180187
2026-03-19T16:02:26.940,9,88,251363,180278
2026-03-19T16:02:26.980,9,89,251363,180278
2026-03-19T16:02:27.019,9,90,251363,180278
2026-03-19T16:02:27.060,9,91,251363,180278
2026-03-19T16:02:27.099,9,92,251409,180346
2026-03-19T16:02:27.139,9,93,251409,180346
2026-03-19T16:02:27.179,9,94,251409,180346
2026-03-19T16:02:27.219,9,95,251409,180346
2026-03-19T16:02:27.259,9,96,251498,180449
2026-03-19T16:02:27.299,9,97,251498,180449
2026-03-19T16:02:27.339,9,98,251498,180449
2026-03-19T16:02:27.379,9,99,251498,180449
2026-03-19T16:02:27.419,9,100,251367,180462
2026-03-19T16:02:27.458,9,101,251367,180462
2026-03-19T16:02:27.498,9,102,251367,180462
2026-03-19T16:02:27.538,9,103,251367,180462
2026-03-19T16:02:27.578,9,104,251401,180532
2026-03-19T16:02:27.617,9,105,251401,180532
2026-03-19T16:02:27.657,9,106,251401,180532
2026-03-19T16:02:27.697,9,107,251401,180532
2026-03-19T16:02:27.737,9,108,251427,180629
2026-03-19T16:02:27.777,9,109,251427,180629
2026-03-19T16:02:27.817,9,110,251427,180629
2026-03-19T16:02:27.857,9,111,251427,180629
2026-03-19T16:02:27.897,9,112,251537,180737
2026-03-19T16:02:27.937,9,113,251537,180737
2026-03-19T16:02:27.977,9,114,251537,180737
2026-03-19T16:02:28.016,9,115,251537,180737
2026-03-19T16:02:28.056,9,116,251561,180779
2026-03-19T16:02:28.096,9,117,251561,180779
2026-03-19T16:02:28.136,9,118,251561,180779
2026-03-19T16:02:28.176,9,119,251561,180779
2026-03-19T16:02:28.216,9,120,251524,180816
2026-03-19T16:02:28.255,9,121,251524,180816
2026-03-19T16:02:28.295,9,122,251524,180816
2026-03-19T16:02:28.336,9,123,251524,180816
2026-03-19T16:02:28.375,9,124,251560,180936
2026-03-19T16:02:28.415,9,125,251560,180936
2026-03-19T16:02:28.455,9,126,251560,180936
2026-03-19T16:02:28.495,9,127,251560,180936
2026-03-19T16:02:28.535,9,128,251601,181029
2026-03-19T16:02:28.575,9,129,251601,181029
2026-03-19T16:02:28.615,9,130,251601,181029
2026-03-19T16:02:28.654,9,131,251601,181029
2026-03-19T16:02:28.694,9,132,251635,181079
2026-03-19T16:02:28.734,9,133,251635,181079
2026-03-19T16:02:28.774,9,134,251635,181079
2026-03-19T16:02:28.813,9,135,251635,181079
2026-03-19T16:02:28.853,9,136,251519,181089
2026-03-19T16:02:28.893,9,137,251519,181089
2026-03-19T16:02:28.934,9,138,251519,181089
2026-03-19T16:02:28.973,9,139,251519,181089
2026-03-19T16:02:29.013,9,140,251545,181175
2026-03-19T16:02:29.053,9,141,251545,181175
2026-03-19T16:02:29.093,9,142,251545,181175
2026-03-19T16:02:29.133,9,143,251545,181175
2026-03-19T16:02:29.173,9,144,251561,181248
2026-03-19T16:02:29.213,9,145,251561,181248
2026-03-19T16:02:29.252,9,146,251561,181248
2026-03-19T16:02:29.292,9,147,251561,181248
2026-03-19T16:02:29.332,9,148,251598,181315
2026-03-19T16:02:29.372,9,149,251598,181315
2026-03-19T16:02:29.412,9,150,251598,181315
2026-03-19T16:02:29.451,9,151,251598,181315
2026-03-19T16:02:29.491,9,152,251478,181273
2026-03-19T16:02:29.531,9,153,251478,181273
2026-03-19T16:02:29.571,9,154,251478,181273
2026-03-19T16:02:29.611,9,155,251478,181273
2026-03-19T16:02:29.651,9,156,251466,181362
2026-03-19T16:02:29.697,9,157,251466,181362
2026-03-19T16:02:29.731,9,158,251466,181362
2026-03-19T16:02:29.770,9,159,251466,181362
2026-03-19T16:02:29.810,9,160,251505,181451
2026-03-19T16:02:29.850,9,161,251505,181451
2026-03-19T16:02:29.890,9,162,251505,181451
2026-03-19T16:02:29.930,9,163,251505,181451
2026-03-19T16:02:29.970,9,164,251522,181552
2026-03-19T16:02:30.009,9,165,251522,181552
2026-03-19T16:02:30.050,9,166,251522,181552
2026-03-19T16:02:30.090,9,167,251522,181552
2026-03-19T16:02:30.130,9,168,251431,181477
2026-03-19T16:02:30.170,9,169,251431,181477
2026-03-19T16:02:30.210,9,170,251431,181477
2026-03-19T16:02:30.251,9,171,251431,181477
2026-03-19T16:02:30.289,9,172,251362,181507
2026-03-19T16:02:30.329,9,173,251362,181507
2026-03-19T16:02:30.369,9,174,251362,181507
2026-03-19T16:02:30.409,9,175,251362,181507
2026-03-19T16:02:30.448,9,176,251399,181573
2026-03-19T16:02:30.489,9,177,251399,181573
2026-03-19T16:02:30.528,9,178,251399,181573
2026-03-19T16:02:30.568,9,179,251399,181573
2026-03-19T16:02:30.608,9,180,251475,181659
2026-03-19T16:02:30.648,9,181,251475,181659
2026-03-19T16:02:30.688,9,182,251475,181659
2026-03-19T16:02:30.728,9,183,251475,181659
2026-03-19T16:02:30.768,9,184,251465,181656
2026-03-19T16:02:30.808,9,185,251465,181656
2026-03-19T16:02:30.847,9,186,251465,181656
2026-03-19T16:02:30.887,9,187,251465,181656
2026-03-19T16:02:30.927,9,188,251341,181636
2026-03-19T16:02:30.966,9,189,251341,181636
2026-03-19T16:02:31.007,9,190,251341,181636
2026-03-19T16:02:31.047,9,191,251341,181636
2026-03-19T16:02:31.086,9,192,251397,181683
2026-03-19T16:02:31.126,9,193,251397,181683
2026-03-19T16:02:31.166,9,194,251397,181683
2026-03-19T16:02:31.205,9,195,251397,181683
2026-03-19T16:02:31.246,9,196,251459,181723
2026-03-19T16:02:31.286,9,197,251459,181723
2026-03-19T16:02:31.325,9,198,251459,181723
2026-03-19T16:02:31.365,9,199,251459,181723
2026-03-19T16:02:31.405,9,200,251534,181796
2026-03-19T16:02:31.445,9,201,251534,181796
2026-03-19T16:02:31.485,9,202,251534,181796
2026-03-19T16:02:31.525,9,203,251534,181796
2026-03-19T16:02:31.565,9,204,251407,181719
2026-03-19T16:02:31.604,9,205,251407,181719
2026-03-19T16:02:31.644,9,206,251407,181719
2026-03-19T16:02:31.684,9,207,251407,181719
2026-03-19T16:02:31.724,9,208,251398,181769
2026-03-19T16:02:31.764,9,209,251398,181769
2026-03-19T16:02:31.804,9,210,251398,181769
2026-03-19T16:02:31.844,9,211,251398,181769
2026-03-19T16:02:31.883,9,212,251446,181832
2026-03-19T16:02:31.923,9,213,251446,181832
2026-03-19T16:02:31.964,9,214,251446,181832
2026-03-19T16:02:32.003,9,215,251446,181832
2026-03-19T16:02:32.044,9,216,251525,181880
2026-03-19T16:02:32.084,9,217,251525,181880
2026-03-19T16:02:32.123,9,218,251525,181880
2026-03-19T16:02:32.163,9,219,251525,181880
2026-03-19T16:02:32.203,9,220,251587,181917
2026-03-19T16:02:32.242,9,221,251587,181917
2026-03-19T16:02:32.283,9,222,251587,181917
2026-03-19T16:02:32.323,9,223,251587,181917
2026-03-19T16:02:32.362,9,224,251467,181829
2026-03-19T16:02:32.402,9,225,251467,181829
2026-03-19T16:02:32.442,9,226,251467,181829
2026-03-19T16:02:32.482,9,227,251467,181829
2026-03-19T16:02:32.522,9,228,251458,181839
2026-03-19T16:02:32.561,9,229,251458,181839
2026-03-19T16:02:32.601,9,230,251458,181839
2026-03-19T16:02:32.641,9,231,251458,181839
2026-03-19T16:02:32.681,9,232,251509,181869
2026-03-19T16:02:32.721,9,233,251509,181869
2026-03-19T16:02:32.760,9,234,251509,181869
2026-03-19T16:02:32.800,9,235,251509,181869
2026-03-19T16:02:32.840,9,236,251586,181884
2026-03-19T16:02:32.880,9,237,251586,181884
2026-03-19T16:02:32.922,9,238,251586,181884
2026-03-19T16:02:32.960,9,239,251586,181884
2026-03-19T16:02:33.000,9,240,251663,181897
2026-03-19T16:02:33.040,9,241,251663,181897
2026-03-19T16:02:33.080,9,242,251663,181897
2026-03-19T16:02:33.119,9,243,251663,181897
2026-03-19T16:02:33.159,9,244,251555,181738
2026-03-19T16:02:33.199,9,245,251555,181738
2026-03-19T16:02:33.239,9,246,251555,181738
2026-03-19T16:02:33.280,9,247,251555,181738
2026-03-19T16:02:33.319,9,248,251530,181689
2026-03-19T16:02:33.359,9,249,251530,181689
2026-03-19T16:02:33.399,9,250,251530,181689
2026-03-19T16:02:33.439,9,251,251530,181689
2026-03-19T16:02:36.030,10,0,251768,180804
2026-03-19T16:02:36.070,10,1,251768,180804
2026-03-19T16:02:36.109,10,2,251768,180804
2026-03-19T16:02:36.150,10,3,251768,180804
2026-03-19T16:02:36.189,10,4,251799,180787
2026-03-19T16:02:36.229,10,5,251799,180787
2026-03-19T16:02:36.269,10,6,251799,180787
2026-03-19T16:02:36.309,10,7,251799,180787
2026-03-19T16:02:36.349,10,8,251840,180789
2026-03-19T16:02:36.389,10,9,251840,180789
2026-03-19T16:02:36.429,10,10,251840,180789
2026-03-19T16:02:36.469,10,11,251840,180789
2026-03-19T16:02:36.508,10,12,251810,180776
2026-03-19T16:02:36.548,10,13,251810,180776
2026-03-19T16:02:36.588,10,14,251810,180776
2026-03-19T16:02:36.628,10,15,251810,180776
2026-03-19T16:02:36.668,10,16,251654,180698
2026-03-19T16:02:36.708,10,17,251654,180698
2026-03-19T16:02:36.747,10,18,251654,180698
2026-03-19T16:02:36.788,10,19,251654,180698
2026-03-19T16:02:36.828,10,20,251641,180670
2026-03-19T16:02:36.868,10,21,251641,180670
2026-03-19T16:02:36.907,10,22,251641,180670
2026-03-19T16:02:36.947,10,23,251641,180670
2026-03-19T16:02:36.987,10,24,251646,180660
2026-03-19T16:02:37.027,10,25,251646,180660
2026-03-19T16:02:37.067,10,26,251646,180660
2026-03-19T16:02:37.107,10,27,251646,180660
2026-03-19T16:02:37.146,10,28,251688,180658
2026-03-19T16:02:37.186,10,29,251688,180658
2026-03-19T16:02:37.226,10,30,251688,180658
2026-03-19T16:02:37.266,10,31,251688,180658
2026-03-19T16:02:37.307,10,32,251666,180637
2026-03-19T16:02:37.346,10,33,251666,180637
2026-03-19T16:02:37.385,10,34,251666,180637
2026-03-19T16:02:37.425,10,35,251666,180637
2026-03-19T16:02:37.465,10,36,251555,180571
2026-03-19T16:02:37.505,10,37,251555,180571
2026-03-19T16:02:37.545,10,38,251555,180571
2026-03-19T16:02:37.585,10,39,251555,180571
2026-03-19T16:02:37.625,10,40,251511,180571
2026-03-19T16:02:37.665,10,41,251511,180571
2026-03-19T16:02:37.705,10,42,251511,180571
2026-03-19T16:02:37.744,10,43,251511,180571
2026-03-19T16:02:37.785,10,44,251541,180573
2026-03-19T16:02:37.825,10,45,251541,180573
2026-03-19T16:02:37.865,10,46,251541,180573
2026-03-19T16:02:37.905,10,47,251541,180573
2026-03-19T16:02:37.944,10,48,251602,180588
2026-03-19T16:02:37.984,10,49,251602,180588
2026-03-19T16:02:38.027,10,50,251602,180588
2026-03-19T16:02:38.064,10,51,251602,180588
2026-03-19T16:02:38.103,10,52,251550,180554
2026-03-19T16:02:38.143,10,53,251550,180554
2026-03-19T16:02:38.183,10,54,251550,180554
2026-03-19T16:02:38.223,10,55,251550,180554
2026-03-19T16:02:38.263,10,56,251471,180529
2026-03-19T16:02:38.303,10,57,251471,180529
2026-03-19T16:02:38.343,10,58,251471,180529
2026-03-19T16:02:38.382,10,59,251471,180529
2026-03-19T16:02:38.422,10,60,251466,180536
2026-03-19T16:02:38.462,10,61,251466,180536
2026-03-19T16:02:38.502,10,62,251466,180536
2026-03-19T16:02:38.542,10,63,251466,180536
2026-03-19T16:02:38.581,10,64,251501,180541
2026-03-19T16:02:38.621,10,65,251501,180541
2026-03-19T16:02:38.662,10,66,251501,180541
2026-03-19T16:02:38.702,10,67,251501,180541
2026-03-19T16:02:38.741,10,68,251570,180589
2026-03-19T16:02:38.781,10,69,251570,180589
2026-03-19T16:02:38.821,10,70,251570,180589
2026-03-19T16:02:38.861,10,71,251570,180589
2026-03-19T16:02:38.901,10,72,251423,180529
2026-03-19T16:02:38.940,10,73,251423,180529
2026-03-19T16:02:38.980,10,74,251423,180529
2026-03-19T16:02:39.020,10,75,251423,180529
2026-03-19T16:02:39.060,10,76,251434,180530
2026-03-19T16:02:39.100,10,77,251434,180530
2026-03-19T16:02:39.141,10,78,251434,180530
2026-03-19T16:02:39.180,10,79,251434,180530
2026-03-19T16:02:39.220,10,80,251452,180537
2026-03-19T16:02:39.260,10,81,251452,180537
2026-03-19T16:02:39.300,10,82,251452,180537
2026-03-19T16:02:39.339,10,83,251452,180537
2026-03-19T16:02:39.379,10,84,251484,180609
2026-03-19T16:02:39.419,10,85,251484,180609
2026-03-19T16:02:39.459,10,86,251484,180609
2026-03-19T16:02:39.499,10,87,251484,180609
2026-03-19T16:02:39.539,10,88,251433,180620
2026-03-19T16:02:39.579,10,89,251433,180620
2026-03-19T16:02:39.619,10,90,251433,180620
2026-03-19T16:02:39.659,10,91,251433,180620
2026-03-19T16:02:39.698,10,92,251387,180696
2026-03-19T16:02:39.739,10,93,251387,180696
2026-03-19T16:02:39.778,10,94,251387,180696
2026-03-19T16:02:39.818,10,95,251387,180696
2026-03-19T16:02:39.858,10,96,251407,180791
2026-03-19T16:02:39.898,10,97,251407,180791
2026-03-19T16:02:39.938,10,98,251407,180791
2026-03-19T16:02:39.978,10,99,251407,180791
2026-03-19T16:02:40.017,10,100,251466,180894
2026-03-19T16:02:40.057,10,101,251466,180894
2026-03-19T16:02:40.097,10,102,251466,180894
2026-03-19T16:02:40.136,10,103,251466,180894
2026-03-19T16:02:40.176,10,104,251500,180952
2026-03-19T16:02:40.216,10,105,251500,180952
2026-03-19T16:02:40.256,10,106,251500,180952
2026-03-19T16:02:40.296,10,107,251500,180952
2026-03-19T16:02:40.336,10,108,251495,181018
2026-03-19T16:02:40.376,10,109,251495,181018
2026-03-19T16:02:40.415,10,110,251495,181018
2026-03-19T16:02:40.455,10,111,251495,181018
2026-03-19T16:02:40.495,10,112,251546,181107
2026-03-19T16:02:40.536,10,113,251546,181107
2026-03-19T16:02:40.576,10,114,251546,181107
2026-03-19T16:02:40.615,10,115,251546,181107
2026-03-19T16:02:40.655,10,116,251614,181213
2026-03-19T16:02:40.695,10,117,251614,181213
2026-03-19T16:02:40.735,10,118,251614,181213
2026-03-19T16:02:40.774,10,119,251614,181213
2026-03-19T16:02:40.815,10,120,251680,181278
2026-03-19T16:02:40.855,10,121,251680,181278
2026-03-19T16:02:40.894,10,122,251680,181278
2026-03-19T16:02:40.934,10,123,251680,181278
2026-03-19T16:02:40.974,10,124,251620,181312
2026-03-19T16:02:41.014,10,125,251620,181312
2026-03-19T16:02:41.054,10,126,251620,181312
2026-03-19T16:02:41.094,10,127,251620,181312
2026-03-19T16:02:41.133,10,128,251651,181404
2026-03-19T16:02:41.173,10,129,251651,181404
2026-03-19T16:02:41.213,10,130,251651,181404
2026-03-19T16:02:41.253,10,131,251651,181404
2026-03-19T16:02:41.293,10,132,251707,181506
2026-03-19T16:02:41.333,10,133,251707,181506
2026-03-19T16:02:41.373,10,134,251707,181506
2026-03-19T16:02:41.413,10,135,251707,181506
2026-03-19T16:02:41.453,10,136,251725,181556
2026-03-19T16:02:41.492,10,137,251725,181556
2026-03-19T16:02:41.532,10,138,251725,181556
2026-03-19T16:02:41.572,10,139,251725,181556
2026-03-19T16:02:41.612,10,140,251638,181558
2026-03-19T16:02:41.652,10,141,251638,181558
2026-03-19T16:02:41.692,10,142,251638,181558
2026-03-19T16:02:41.731,10,143,251638,181558
2026-03-19T16:02:41.772,10,144,251662,181640
2026-03-19T16:02:41.811,10,145,251662,181640
2026-03-19T16:02:41.851,10,146,251662,181640
2026-03-19T16:02:41.891,10,147,251662,181640
2026-03-19T16:02:41.931,10,148,251697,181701
2026-03-19T16:02:41.971,10,149,251697,181701
2026-03-19T16:02:42.011,10,150,251697,181701
2026-03-19T16:02:42.050,10,151,251697,181701
2026-03-19T16:02:42.090,10,152,251731,181742
2026-03-19T16:02:42.130,10,153,251731,181742
2026-03-19T16:02:42.171,10,154,251731,181742
2026-03-19T16:02:42.210,10,155,251731,181742
2026-03-19T16:02:42.250,10,156,251584,181705
2026-03-19T16:02:42.290,10,157,251584,181705
2026-03-19T16:02:42.329,10,158,251584,181705
2026-03-19T16:02:42.369,10,159,251584,181705
2026-03-19T16:02:42.409,10,160,251627,181786
2026-03-19T16:02:42.449,10,161,251627,181786
2026-03-19T16:02:42.489,10,162,251627,181786
2026-03-19T16:02:42.529,10,163,251627,181786
2026-03-19T16:02:42.568,10,164,251660,181841
2026-03-19T16:02:42.609,10,165,251660,181841
2026-03-19T16:02:42.648,10,166,251660,181841
2026-03-19T16:02:42.688,10,167,251660,181841
2026-03-19T16:02:42.728,10,168,251689,181883
2026-03-19T16:02:42.768,10,169,251689,181883
2026-03-19T16:02:42.808,10,170,251689,181883
2026-03-19T16:02:42.848,10,171,251689,181883
2026-03-19T16:02:42.888,10,172,251547,181821
2026-03-19T16:02:42.928,10,173,251547,181821
2026-03-19T16:02:42.967,10,174,251547,181821
2026-03-19T16:02:43.007,10,175,251547,181821
2026-03-19T16:02:43.047,10,176,251579,181872
2026-03-19T16:02:43.087,10,177,251579,181872
2026-03-19T16:02:43.127,10,178,251579,181872
2026-03-19T16:02:43.167,10,179,251579,181872
2026-03-19T16:02:43.207,10,180,251621,181923
2026-03-19T16:02:43.246,10,181,251621,181923
2026-03-19T16:02:43.286,10,182,251621,181923
2026-03-19T16:02:43.328,10,183,251621,181923
2026-03-19T16:02:43.366,10,184,251683,181936
2026-03-19T16:02:43.406,10,185,251683,181936
2026-03-19T16:02:43.445,10,186,251683,181936
2026-03-19T16:02:43.486,10,187,251683,181936
2026-03-19T16:02:43.525,10,188,251536,181870
2026-03-19T16:02:43.565,10,189,251536,181870
2026-03-19T16:02:43.607,10,190,251536,181870
2026-03-19T16:02:43.645,10,191,251536,181870
2026-03-19T16:02:43.685,10,192,251554,181873
2026-03-19T16:02:43.725,10,193,251554,181873
2026-03-19T16:02:43.765,10,194,251554,181873
2026-03-19T16:02:43.804,10,195,251554,181873
2026-03-19T16:02:43.844,10,196,251596,181903
2026-03-19T16:02:43.884,10,197,251596,181903
2026-03-19T16:02:43.924,10,198,251596,181903
2026-03-19T16:02:43.964,10,199,251596,181903
2026-03-19T16:02:44.004,10,200,251662,181916
2026-03-19T16:02:44.043,10,201,251662,181916
2026-03-19T16:02:44.083,10,202,251662,181916
2026-03-19T16:02:44.123,10,203,251662,181916
2026-03-19T16:02:44.163,10,204,251671,181902
2026-03-19T16:02:44.203,10,205,251671,181902
2026-03-19T16:02:44.243,10,206,251671,181902
2026-03-19T16:02:44.283,10,207,251671,181902
2026-03-19T16:02:44.323,10,208,251568,181846
2026-03-19T16:02:44.362,10,209,251568,181846
2026-03-19T16:02:44.403,10,210,251568,181846
2026-03-19T16:02:44.442,10,211,251568,181846
2026-03-19T16:02:44.482,10,212,251599,181891
2026-03-19T16:02:44.522,10,213,251599,181891
2026-03-19T16:02:44.562,10,214,251599,181891
2026-03-19T16:02:44.602,10,215,251599,181891
2026-03-19T16:02:44.642,10,216,251666,181888
2026-03-19T16:02:44.681,10,217,251666,181888
2026-03-19T16:02:44.721,10,218,251666,181888
2026-03-19T16:02:44.761,10,219,251666,181888
2026-03-19T16:02:44.802,10,220,251735,181900
2026-03-19T16:02:44.841,10,221,251735,181900
2026-03-19T16:02:44.881,10,222,251735,181900
2026-03-19T16:02:44.921,10,223,251735,181900
2026-03-19T16:02:44.960,10,224,251739,181842
2026-03-19T16:02:45.000,10,225,251739,181842
2026-03-19T16:02:45.040,10,226,251739,181842
2026-03-19T16:02:45.080,10,227,251739,181842
2026-03-19T16:02:45.120,10,228,251672,181775
2026-03-19T16:02:45.160,10,229,251672,181775
2026-03-19T16:02:45.200,10,230,251672,181775
2026-03-19T16:02:45.240,10,231,251672,181775
2026-03-19T16:02:45.279,10,232,251690,181778
2026-03-19T16:02:45.319,10,233,251690,181778
2026-03-19T16:02:45.359,10,234,251690,181778
2026-03-19T16:02:45.399,10,235,251690,181778
2026-03-19T16:02:45.439,10,236,251728,181730
2026-03-19T16:02:45.479,10,237,251728,181730
2026-03-19T16:02:45.519,10,238,251728,181730
2026-03-19T16:02:45.559,10,239,251728,181730
2026-03-19T16:02:45.598,10,240,251768,181675
2026-03-19T16:02:45.638,10,241,251768,181675
2026-03-19T16:02:45.678,10,242,251768,181675
2026-03-19T16:02:45.718,10,243,251768,181675
2026-03-19T16:02:45.758,10,244,251800,181566
2026-03-19T16:02:45.798,10,245,251800,181566
2026-03-19T16:02:45.837,10,246,251800,181566
2026-03-19T16:02:45.877,10,247,251800,181566
2026-03-19T16:02:45.917,10,248,251700,181439
2026-03-19T16:02:45.957,10,249,251700,181439
2026-03-19T16:02:45.997,10,250,251700,181439
2026-03-19T16:02:46.037,10,251,251700,181439
2026-03-19T16:02:54.330,11,0,251568,180687
2026-03-19T16:02:54.370,11,1,251483,180702
2026-03-19T16:02:54.409,11,2,251483,180702
2026-03-19T16:02:54.449,11,3,251483,180702
2026-03-19T16:02:54.489,11,4,251483,180702
2026-03-19T16:02:54.529,11,5,251485,180785
2026-03-19T16:02:54.569,11,6,251485,180785
2026-03-19T16:02:54.609,11,7,251485,180785
2026-03-19T16:02:54.649,11,8,251485,180785
2026-03-19T16:02:54.689,11,9,251534,180858
2026-03-19T16:02:54.728,11,10,251534,180858
2026-03-19T16:02:54.768,11,11,251534,180858
2026-03-19T16:02:54.808,11,12,251534,180858
2026-03-19T16:02:54.848,11,13,251621,180991
2026-03-19T16:02:54.888,11,14,251621,180991
2026-03-19T16:02:54.928,11,15,251621,180991
2026-03-19T16:02:54.968,11,16,251621,180991
2026-03-19T16:02:55.007,11,17,251550,181003
2026-03-19T16:02:55.047,11,18,251550,181003
2026-03-19T16:02:55.087,11,19,251550,181003
2026-03-19T16:02:55.127,11,20,251550,181003
2026-03-19T16:02:55.167,11,21,251567,181099
2026-03-19T16:02:55.207,11,22,251567,181099
2026-03-19T16:02:55.247,11,23,251567,181099
2026-03-19T16:02:55.287,11,24,251567,181099
2026-03-19T16:02:55.326,11,25,251625,181196
2026-03-19T16:02:55.366,11,26,251625,181196
2026-03-19T16:02:55.406,11,27,251625,181196
2026-03-19T16:02:55.446,11,28,251625,181196
2026-03-19T16:02:55.486,11,29,251676,181241
2026-03-19T16:02:55.526,11,30,251676,181241
2026-03-19T16:02:55.566,11,31,251676,181241
2026-03-19T16:02:55.605,11,32,251676,181241
2026-03-19T16:02:55.645,11,33,251632,181187
2026-03-19T16:02:55.685,11,34,251632,181187
2026-03-19T16:02:55.725,11,35,251632,181187
2026-03-19T16:02:55.765,11,36,251632,181187
2026-03-19T16:02:55.805,11,37,251624,181214
2026-03-19T16:02:55.844,11,38,251624,181214
2026-03-19T16:02:55.885,11,39,251624,181214
2026-03-19T16:02:55.925,11,40,251624,181214
2026-03-19T16:02:55.964,11,41,251630,181196
2026-03-19T16:02:56.004,11,42,251630,181196
2026-03-19T16:02:56.044,11,43,251630,181196
2026-03-19T16:02:56.084,11,44,251630,181196
2026-03-19T16:02:56.124,11,45,251658,181143
2026-03-19T16:02:56.164,11,46,251658,181143
2026-03-19T16:02:56.203,11,47,251658,181143
2026-03-19T16:02:56.244,11,48,251658,181143
2026-03-19T16:02:56.283,11,49,251668,181066
2026-03-19T16:02:56.323,11,50,251668,181066
2026-03-19T16:02:56.363,11,51,251668,181066
2026-03-19T16:02:56.403,11,52,251668,181066
2026-03-19T16:02:56.443,11,53,251588,180981
2026-03-19T16:02:56.483,11,54,251588,180981
2026-03-19T16:02:56.522,11,55,251588,180981
2026-03-19T16:02:56.562,11,56,251588,180981
2026-03-19T16:02:56.602,11,57,251607,180934
2026-03-19T16:02:56.642,11,58,251607,180934
2026-03-19T16:02:56.682,11,59,251607,180934
2026-03-19T16:02:56.722,11,60,251607,180934
2026-03-19T16:02:56.761,11,61,251642,180891
2026-03-19T16:02:56.802,11,62,251642,180891
2026-03-19T16:02:56.842,11,63,251642,180891
2026-03-19T16:02:56.881,11,64,251642,180891
2026-03-19T16:02:56.922,11,65,251705,180862
2026-03-19T16:02:56.961,11,66,251705,180862
2026-03-19T16:02:57.001,11,67,251705,180862
2026-03-19T16:02:57.041,11,68,251705,180862
2026-03-19T16:02:57.081,11,69,251565,180778
2026-03-19T16:02:57.120,11,70,251565,180778
2026-03-19T16:02:57.160,11,71,251565,180778
2026-03-19T16:02:57.200,11,72,251565,180778
2026-03-19T16:02:57.240,11,73,251567,180760
2026-03-19T16:02:57.280,11,74,251567,180760
2026-03-19T16:02:57.320,11,75,251567,180760
2026-03-19T16:02:57.360,11,76,251567,180760
2026-03-19T16:02:57.400,11,77,251607,180741
2026-03-19T16:02:57.439,11,78,251607,180741
2026-03-19T16:02:57.479,11,79,251607,180741
2026-03-19T16:02:57.519,11,80,251607,180741
2026-03-19T16:02:57.559,11,81,251688,180756
2026-03-19T16:02:57.599,11,82,251688,180756
2026-03-19T16:02:57.639,11,83,251688,180756
2026-03-19T16:02:57.678,11,84,251688,180756
2026-03-19T16:02:57.718,11,85,251646,180668
2026-03-19T16:02:57.758,11,86,251646,180668
2026-03-19T16:02:57.799,11,87,251646,180668
2026-03-19T16:02:57.838,11,88,251646,180668
2026-03-19T16:02:57.878,11,89,251611,180632
2026-03-19T16:02:57.918,11,90,251611,180632
2026-03-19T16:02:57.958,11,91,251611,180632
2026-03-19T16:02:57.998,11,92,251611,180632
2026-03-19T16:02:58.039,11,93,251605,180606
2026-03-19T16:02:58.077,11,94,251605,180606
2026-03-19T16:02:58.117,11,95,251605,180606
2026-03-19T16:02:58.157,11,96,251605,180606
2026-03-19T16:02:58.197,11,97,251657,180616
2026-03-19T16:02:58.237,11,98,251657,180616
2026-03-19T16:02:58.277,11,99,251657,180616
2026-03-19T16:02:58.316,11,100,251657,180616
2026-03-19T16:02:58.357,11,101,251726,180647
2026-03-19T16:02:58.397,11,102,251726,180647
2026-03-19T16:02:58.436,11,103,251726,180647
2026-03-19T16:02:58.477,11,104,251726,180647
2026-03-19T16:02:58.517,11,105,251706,180593
2026-03-19T16:02:58.556,11,106,251706,180593
2026-03-19T16:02:58.596,11,107,251706,180593
2026-03-19T16:02:58.635,11,108,251706,180593
2026-03-19T16:02:58.676,11,109,251653,180581
2026-03-19T16:02:58.715,11,110,251653,180581
2026-03-19T16:02:58.755,11,111,251653,180581
2026-03-19T16:02:58.795,11,112,251653,180581
2026-03-19T16:02:58.835,11,113,251675,180608
2026-03-19T16:02:58.875,11,114,251675,180608
2026-03-19T16:02:58.915,11,115,251675,180608
2026-03-19T16:02:58.954,11,116,251675,180608
2026-03-19T16:02:58.994,11,117,251723,180582
2026-03-19T16:02:59.034,11,118,251723,180582
2026-03-19T16:02:59.074,11,119,251723,180582
2026-03-19T16:02:59.115,11,120,251723,180582
2026-03-19T16:02:59.154,11,121,251762,180564
2026-03-19T16:02:59.194,11,122,251762,180564
2026-03-19T16:02:59.234,11,123,251762,180564
2026-03-19T16:02:59.273,11,124,251762,180564
2026-03-19T16:02:59.314,11,125,251668,180504
2026-03-19T16:02:59.353,11,126,251668,180504
2026-03-19T16:02:59.394,11,127,251668,180504
2026-03-19T16:02:59.433,11,128,251668,180504
2026-03-19T16:02:59.473,11,129,251525,180520
2026-03-19T16:02:59.513,11,130,251525,180520
2026-03-19T16:02:59.553,11,131,251525,180520
2026-03-19T16:02:59.593,11,132,251525,180520
2026-03-19T16:02:59.633,11,133,251467,180562
2026-03-19T16:02:59.673,11,134,251467,180562
2026-03-19T16:02:59.712,11,135,251467,180562
2026-03-19T16:02:59.752,11,136,251467,180562
2026-03-19T16:02:59.792,11,137,251501,180633
2026-03-19T16:02:59.832,11,138,251501,180633
2026-03-19T16:02:59.872,11,139,251501,180633
2026-03-19T16:02:59.913,11,140,251501,180633
2026-03-19T16:02:59.951,11,141,251561,180768
2026-03-19T16:02:59.991,11,142,251561,180768
2026-03-19T16:03:00.031,11,143,251561,180768
2026-03-19T16:03:00.071,11,144,251561,180768
2026-03-19T16:03:00.111,11,145,251511,180816
2026-03-19T16:03:00.151,11,146,251511,180816
2026-03-19T16:03:00.192,11,147,251511,180816
2026-03-19T16:03:00.230,11,148,251511,180816
2026-03-19T16:03:00.271,11,149,251531,180881
2026-03-19T16:03:00.310,11,150,251531,180881
2026-03-19T16:03:00.350,11,151,251531,180881
2026-03-19T16:03:00.390,11,152,251531,180881
2026-03-19T16:03:00.431,11,153,251546,180932
2026-03-19T16:03:00.470,11,154,251546,180932
2026-03-19T16:03:00.510,11,155,251546,180932
2026-03-19T16:03:00.550,11,156,251546,180932
2026-03-19T16:03:00.590,11,157,251576,181028
2026-03-19T16:03:00.629,11,158,251576,181028
2026-03-19T16:03:00.669,11,159,251576,181028
2026-03-19T16:03:00.709,11,160,251576,181028
2026-03-19T16:03:00.749,11,161,251679,181118
2026-03-19T16:03:00.789,11,162,251679,181118
2026-03-19T16:03:00.829,11,163,251679,181118
2026-03-19T16:03:00.869,11,164,251679,181118
2026-03-19T16:03:00.908,11,165,251514,181078
2026-03-19T16:03:00.949,11,166,251514,181078
2026-03-19T16:03:00.988,11,167,251514,181078
2026-03-19T16:03:01.028,11,168,251514,181078
2026-03-19T16:03:01.068,11,169,251483,181169
2026-03-19T16:03:01.107,11,170,251483,181169
2026-03-19T16:03:01.148,11,171,251483,181169
2026-03-19T16:03:01.187,11,172,251483,181169
2026-03-19T16:03:01.227,11,173,251526,181233
2026-03-19T16:03:01.267,11,174,251526,181233
2026-03-19T16:03:01.307,11,175,251526,181233
2026-03-19T16:03:01.347,11,176,251526,181233
2026-03-19T16:03:01.387,11,177,251564,181262
2026-03-19T16:03:01.427,11,178,251564,181262
2026-03-19T16:03:01.467,11,179,251564,181262
2026-03-19T16:03:01.507,11,180,251564,181262
2026-03-19T16:03:01.547,11,181,251513,181185
2026-03-19T16:03:01.586,11,182,251513,181185
2026-03-19T16:03:01.627,11,183,251513,181185
2026-03-19T16:03:01.666,11,184,251513,181185
2026-03-19T16:03:01.705,11,185,251520,181190
2026-03-19T16:03:01.746,11,186,251520,181190
2026-03-19T16:03:01.785,11,187,251520,181190
2026-03-19T16:03:01.826,11,188,251520,181190
2026-03-19T16:03:01.866,11,189,251543,181216
2026-03-19T16:03:01.905,11,190,251543,181216
2026-03-19T16:03:01.945,11,191,251543,181216
2026-03-19T16:03:01.985,11,192,251543,181216
2026-03-19T16:03:02.025,11,193,251595,181207
2026-03-19T16:03:02.065,11,194,251595,181207
2026-03-19T16:03:02.104,11,195,251595,181207
2026-03-19T16:03:02.144,11,196,251595,181207
2026-03-19T16:03:02.184,11,197,251624,181172
2026-03-19T16:03:02.224,11,198,251624,181172
2026-03-19T16:03:02.264,11,199,251624,181172
2026-03-19T16:03:02.304,11,200,251624,181172
2026-03-19T16:03:02.344,11,201,251521,181064
2026-03-19T16:03:02.383,11,202,251521,181064
2026-03-19T16:03:02.424,11,203,251521,181064
2026-03-19T16:03:02.463,11,204,251521,181064
2026-03-19T16:03:02.503,11,205,251532,181038
2026-03-19T16:03:02.543,11,206,251532,181038
2026-03-19T16:03:02.583,11,207,251532,181038
2026-03-19T16:03:02.623,11,208,251532,181038
2026-03-19T16:03:02.663,11,209,251579,180989
2026-03-19T16:03:02.703,11,210,251579,180989
2026-03-19T16:03:02.742,11,211,251579,180989
2026-03-19T16:03:02.782,11,212,251579,180989
2026-03-19T16:03:02.822,11,213,251652,180949
2026-03-19T16:03:02.862,11,214,251652,180949
2026-03-19T16:03:02.902,11,215,251652,180949
2026-03-19T16:03:02.942,11,216,251652,180949
2026-03-19T16:03:02.981,11,217,251519,180822
2026-03-19T16:03:03.021,11,218,251519,180822
2026-03-19T16:03:03.062,11,219,251519,180822
2026-03-19T16:03:03.101,11,220,251519,180822
2026-03-19T16:03:03.141,11,221,251475,180771
2026-03-19T16:03:03.181,11,222,251475,180771
